"time_sec","clean_signal","raw_signal"
0,0.157271250298805,0.386804310721589
0.01,0.194460859344233,0.272162550697981
0.02,0.236605331974592,0.391530831841823
0.03,0.283596796651195,0.463074662608988
0.04,0.335173374237748,0.49931270877743
0.05,0.390901899979389,0.517133635559866
0.06,0.450160184749762,0.708701727980812
0.07,0.512122766974877,0.645041618550006
0.08,0.575756338532029,0.880566757426393
0.09,0.639831644258182,0.780968597586834
0.1,0.702956992370909,0.956290279404775
0.11,0.763634665583344,1.09827118609082
0.12,0.820336401433722,0.863664622199298
0.13,0.871589198343243,1.00642585293742
0.14,0.916059573055151,1.0652062760824
0.15,0.952624154794388,1.16595471482143
0.16,0.980417381398012,1.12274275351622
0.17,0.998852291189498,0.953981001500901
0.18,1.00761643918482,0.982571734658293
0.19,1.00665000338734,1.28496670744615
0.2,0.996115729169528,1.14677426500488
0.21,0.976369864578607,1.01150332626399
0.22,0.947940070308758,1.11423938953133
0.23,0.911511701360385,1.19111855313633
0.24,0.867919493187441,1.20431315618413
0.25,0.818138980122769,0.970789639913397
0.26,0.763271674583235,0.932052571096465
0.27,0.704519987704267,0.755067462883108
0.28,0.643151152014913,0.873760927665021
0.29,0.58045272803757,0.725219560263582
0.3,0.517684500649158,0.752213924056516
0.31,0.456032117639912,0.712601659208007
0.32,0.396566825803099,0.681608553811301
0.33,0.340213820224942,0.49574540685389
0.34,0.287729941234913,0.534345272435575
0.35,0.239690411560284,0.310482460481955
0.36,0.196484176905479,0.3437742491286
0.37,0.158317829759127,0.302145930598858
0.38,0.125228381826125,0.145805905286787
0.39,0.0971046996591857,0.315481235855621
0.4,0.0737160504527288,0.307414084714971
0.41,0.0547443200989822,0.244767796648504
0.42,0.0398149141316149,0.321024120298084
0.43,0.02852106511999,0.192546770927286
0.44,0.0204378013498579,0.134700905366613
0.45,0.0151250188952411,0.274996796326465
0.46,0.012123010016682,0.173935600691575
0.47,0.0109470174161571,0.354633551803627
0.48,0.0110885355661472,0.206122066684804
0.49,0.0120294189078653,0.295377410241274
0.5,0.0132706358610354,0.271223633165724
0.51,0.0143719922962322,0.185122301702751
0.52,0.0149942213012939,0.375723688856695
0.53,0.014932332010648,0.30220454451
0.54,0.0141301222009358,0.258275181451477
0.55,0.0126701910293422,0.272837120472596
0.56,0.0107403340465586,0.304159487682369
0.57,0.00858377863065285,0.255833955741873
0.58,0.00644519165095912,0.00800315947549848
0.59,0.00452533685107766,0.269216726441289
0.6,0.00295445550573222,0.216325795643817
0.61,0.00178892467789963,0.260160456803732
0.62,0.00102939610611971,0.291884820314268
0.63,0.000653464855144085,0.35765169530819
0.64,0.000653412446121588,0.188152273761635
0.65,0.00107012001093973,0.35157175533495
0.66,0.00201716550341263,0.275752177713827
0.67,0.00369299367269593,0.334162412542904
0.68,0.00638235816299684,0.327904073723595
0.69,0.0104499521891056,0.316410774553816
0.7,0.0163290705910446,0.181549822579497
0.71,0.0245068786287533,0.266294418463006
0.72,0.0355064183286855,0.334674928220528
0.73,0.0498647736449438,0.223106936222934
0.74,0.0681072175740299,0.274394240695662
0.75,0.0907183729731342,0.387053004813369
0.76,0.118112645917147,0.429515700305411
0.77,0.150606602996919,0.437702850444184
0.78,0.188395150570646,0.367526205005658
0.79,0.23153160974984,0.393492847132124
0.8,0.279909952581031,0.650773016316789
0.81,0.33324667351784,0.603581946353398
0.82,0.391060782262384,0.647644902209184
0.83,0.45265320250152,0.692250050604176
0.84,0.517090519243079,0.670524819859033
0.85,0.583200983869663,0.880805815716987
0.86,0.649591390870704,0.880482241753639
0.87,0.71469098311654,0.947902007643159
0.88,0.7768231685162,1.09884460452995
0.89,0.834298972930687,1.14686945769908
0.9,0.885519991216867,1.24314568125479
0.91,0.929075277783758,1.13661843511616
0.92,0.963817439509042,1.26081615226855
0.93,0.988908077886102,1.34445469183513
0.94,1.00383019199657,1.15846513767111
0.95,1.00837282249224,1.18220122438293
0.96,1.00259866847167,1.1538987639245
0.97,0.986807047928886,1.11101029015173
0.98,0.961502178932217,1.2078962805594
0.99,0.927371516934486,1.21863264011979
1,0.885272883723272,1.21931850119024
1.01,0.836224546965714,1.15669116354954
1.02,0.781390723798713,0.936893441352118
1.03,0.722056457815319,1.10452225180048
1.04,0.659589538597368,0.839617917128366
1.05,0.595391459844103,0.835941234815458
1.06,0.530842699567864,0.72786496815292
1.07,0.467248843104317,0.686913537586098
1.08,0.40579320316141,0.648907481161017
1.09,0.347499411781543,0.583653674890592
1.1,0.293205139343548,0.516338371858665
1.11,0.243546605902305,0.475809292653399
1.12,0.198953225927847,0.382168780473241
1.13,0.159652179100287,0.339756259236084
1.14,0.125683089722049,0.211585570798607
1.15,0.0969225405618523,0.283433401930747
1.16,0.0731165848178541,0.247467794382322
1.17,0.0539172297779351,0.483656260685573
1.18,0.0389170925450229,0.141719254870001
1.19,0.0276762002185148,0.248571404761281
1.2,0.0197368528723208,0.108264691855419
1.21,0.0146263090492479,0.103072684923724
1.22,0.0118515816340279,0.225933022083676
1.23,0.0108941149360311,0.133253249163626
1.24,0.011212986579894,0.211103844026358
1.25,0.0122628332033948,0.175946969346969
1.26,0.013527478824821,0.160248955216837
1.27,0.0145639423898411,0.0462378630141322
1.28,0.0150463841036544,0.108510638846956
1.29,0.0147976146212407,0.218362383496265
1.3,0.0137979771344991,0.246134289510813
1.31,0.0121671991472425,0.157351170377311
1.32,0.0101223626119933,0.192393772854722
1.33,0.0079219582565492,0.277636903155031
1.34,0.00580981590189732,0.29846507183659
1.35,0.00397233810280595,0.0912191471712017
1.36,0.00251817516089795,0.165664194198664
1.37,0.00148284878687497,0.267617011994311
1.38,0.000854130156395774,0.130740277065603
1.39,0.000609309991800087,0.161294488908828
1.4,0.00075406175890529,0.156134935413028
1.41,0.00135434006603962,0.0899651907168423
1.42,0.00255652529052599,0.1239321915728
1.43,0.00459513931719559,0.156485161350367
1.44,0.00779041251053329,0.126192270538733
1.45,0.0125390181342682,0.250358069893883
1.46,0.0193005854216096,0.126777710232271
1.47,0.0285810506904035,0.137064574195022
1.48,0.040912609087769,0.236951805741248
1.49,0.0568297489546536,0.109736805249673
1.5,0.0768416697848333,0.208102403421179
1.51,0.101402725172122,0.1088701309074
1.52,0.130883499995272,0.352897291912292
1.53,0.165545015540165,0.269318244253687
1.54,0.205517237127506,0.290755141718911
1.55,0.250781121316718,0.271363673375308
1.56,0.301151931094572,0.417128053985213
1.57,0.356261477249297,0.405768057404842
1.58,0.415538754468225,0.48329889896351
1.59,0.478191695836544,0.688534520917146
1.6,0.543196227138949,0.633351729912888
1.61,0.609300865245014,0.624604704575225
1.62,0.675054480216775,0.785987011351505
1.63,0.738861136828573,0.804528893182584
1.64,0.799059929260237,0.937740599721248
1.65,0.854021189446363,1.05686980807144
1.66,0.90224553871054,0.907843416935493
1.67,0.942450716935209,1.06057819086279
1.68,0.973633643722137,1.05890748832688
1.69,0.995101059753316,1.14193986028242
1.7,1.0064695342825,1.05997802373197
1.71,1.00764227178591,1.14314598810173
1.72,0.998773995129413,0.924414064693254
1.73,0.980235232905483,1.17729436627614
1.74,0.952583933385574,1.08031464467746
1.75,0.916546948752744,0.959668208994053
1.76,0.873008611843222,0.808895703107491
1.77,0.823000181992841,0.922862962975467
1.78,0.767683339763083,0.851366105022625
1.79,0.708323017296086,0.749438391041484
1.8,0.646248566520775,0.696577476345595
1.81,0.58280605716946,0.570871091127932
1.82,0.51930701642216,0.580179971680609
1.83,0.45697950689794,0.508488942143355
1.84,0.396926269013879,0.399085940624925
1.85,0.340092554318257,0.254252695459104
1.86,0.28724427762208,0.360917884873629
1.87,0.238955967008402,0.297456661316706
1.88,0.195607855322635,0.139416848639772
1.89,0.157391906199887,0.0370848831363295
1.9,0.124326863169046,0.144528701476636
1.91,0.096281927256666,0.0690244357831777
1.92,0.0730072604281885,0.0901100715766777
1.93,0.0541676393203798,-0.0559137614289736
1.94,0.0393741379213203,-0.0473745258640702
1.95,0.0282086153985377,0.101603664330066
1.96,0.0202375057964409,0.0356232208446856
1.97,0.0150146883574626,0.0415713082352241
1.98,0.0120770601995961,0.133490737792772
1.99,0.0109394284382378,-0.00599712200803022
2,0.0110962114925567,-0.179652853648147
2.01,0.0120355849902804,0.00463643437162738
2.02,0.0132675024186563,0.0694521017285136
2.03,0.014361762267525,0.138190575616848
2.04,0.0149877780173485,-0.13950056960833
2.05,0.0149455904627351,-0.124858896241959
2.06,0.0141788431213889,-0.0934104105573141
2.07,0.0127647088734059,-0.126061028131097
2.08,0.0108818301175408,-0.0986462608179305
2.09,0.00876330174112672,-0.0672917903061303
2.1,0.00664570083709867,-0.154021481018342
2.11,0.0047259413429237,0.0997820711822286
2.12,0.00313517203737807,-0.059463743477535
2.13,0.00193399035810885,-0.0793211960201138
2.14,0.0011275675559403,-0.0370408027135857
2.15,0.000694631731584083,-0.0774066293684417
2.16,0.000621893450407523,-0.094300664962937
2.17,0.000935799851843369,0.0314783568308514
2.18,0.00172592315599193,-0.106465113970454
2.19,0.00315766174475723,-0.193569963464176
2.2,0.00547496372976289,-0.0609039141263197
2.21,0.00899554453941496,-0.119532076224211
2.22,0.0141012911734961,-0.131204084027838
2.23,0.0212256191018952,-0.170921873746997
2.24,0.0308382657496674,-0.0447043809822168
2.25,0.0434271594457363,-0.0834001584631907
2.26,0.0594770289380171,-0.0152477788818253
2.27,0.0794452264594695,-0.0583324285441441
2.28,0.103736300126261,-0.0709998704059963
2.29,0.132677494389209,0.107636384126739
2.3,0.166497111734156,0.0167157293482889
2.31,0.205306528470624,0.150146621352725
2.32,0.249085117126942,0.0190317040651584
2.33,0.297666181961962,0.123544913465587
2.34,0.350721995723709,0.18946288602033
2.35,0.407747442828806,0.233906889711927
2.36,0.468044302275872,0.430552460323385
2.37,0.530710939234162,0.380704057498482
2.38,0.594643943214293,0.463227317163831
2.39,0.658558062373564,0.429473486389386
2.4,0.721028254022806,0.506285254187648
2.41,0.780553244170561,0.701312245593423
2.42,0.835634852296151,0.774576377712358
2.43,0.884863054715229,0.820415549072895
2.44,0.926994737729521,0.649598984051038
2.45,0.961015080315755,0.955510855679017
2.46,0.986174314720394,0.895499157560433
2.47,1.00199815129323,0.825344736445426
2.48,1.00827578583158,0.88759070145744
2.49,1.00503349796076,0.747925098797714
2.5,0.992503301186259,0.723023624821783
2.51,0.971094706009643,0.790876703366172
2.52,0.941374108713884,0.659032724271531
2.53,0.904051954661475,0.730507709135251
2.54,0.859974128634677,0.772796849823797
2.55,0.81011211895066,0.534196978619181
2.56,0.755546801854876,0.501091723516939
2.57,0.697442829629933,0.503650882988545
2.58,0.637013634887313,0.355989379785743
2.59,0.575479856676086,0.343139211887639
2.6,0.514025662498494,0.380145340058242
2.61,0.453757625375634,0.325636565355183
2.62,0.395669749241785,0.218748216223951
2.63,0.340616569741094,-0.017042082363538
2.64,0.289294740003208,0.0735759053816308
2.65,0.242232663722023,0.114190921130795
2.66,0.199787657174376,0.0498358975321971
2.67,0.162150484524852,-0.0698648769413882
2.68,0.129357370631887,-0.305088323521478
2.69,0.101309277549455,-0.113924226707543
2.7,0.0777971903511392,-0.0980309779767695
2.71,0.0585306876581284,-0.161108432674856
2.72,0.0431658055193015,-0.169077033422121
2.73,0.0313278469095271,-0.160472240914799
2.74,0.0226257961608707,-0.236869731331338
2.75,0.016657318317193,-0.107718682306304
2.76,0.0130063468814657,-0.179895360989417
2.77,0.0112379899857821,-0.320023684147444
2.78,0.0108968756338417,-0.111695713182318
2.79,0.0115144328667705,-0.126473507780947
2.8,0.0126279455960369,-0.156972046380504
2.81,0.013810224904489,-0.355862287280075
2.82,0.0147046616088197,-0.268593037197691
2.83,0.015057611610551,-0.172900077536368
2.84,0.0147395590384035,-0.221561450215091
2.85,0.0137486117887096,-0.1991633301576
2.86,0.0121940802454957,-0.032699517200382
2.87,0.0102629516395685,-0.297730535997551
2.88,0.00817648281185952,-0.404218228909855
2.89,0.00614657778925434,-0.216065648452003
2.9,0.00434140664586454,-0.29549669190112
2.91,0.00286700908321762,-0.206955780792187
2.92,0.00176732088827028,-0.309358344533138
2.93,0.00104050636485418,-0.0687117265243178
2.94,0.000665990683560848,-0.256481801385571
2.95,0.000635028225381327,-0.285290526700467
2.96,0.000978188208998228,-0.260501509598679
2.97,0.00178527739132567,-0.177781074313274
2.98,0.00321600659174581,-0.237913325729918
2.99,0.00550213997296795,-0.373761357933774
3,0.00894324207674868,-0.240890547779121
3.01,0.0138982704994704,-0.174948788442868
3.02,0.0207744753727708,-0.225927283489196
3.03,0.0300139935154409,-0.161108132654844
3.04,0.0420778030976514,-0.219627015821488
3.05,0.0574266983339181,-0.197202642873189
3.06,0.0764996051973171,-0.134872769698049
3.07,0.0996904801868052,-0.0707517780110172
3.08,0.127325659963514,-0.222131801209177
3.09,0.159643437904716,-0.0926017380451757
3.1,0.196776765567258,-0.0582390502946407
3.11,0.238738661139791,-0.0710388581247899
3.12,0.285408791122741,-0.0460812610672959
3.13,0.336519430928528,0.0376896625695206
3.14,0.39163997068459,0.190630924425951
3.15,0.45016117948908,0.169366628442495
3.16,0.511282920881691,0.201515371168844
3.17,0.574010949440302,0.340667134067991
3.18,0.637168868961763,0.292421096778066
3.19,0.69942976041705,0.53794248434922
3.2,0.759368521418504,0.476144007957044
3.21,0.815531420198091,0.586951851958307
3.22,0.866515044904696,0.627679251500618
3.23,0.911044066708504,0.668948501136085
3.24,0.948036973233376,0.851597466561703
3.25,0.976651366023953,0.670367386171816
3.26,0.996304914304785,0.848663040630792
3.27,1.00667333219602,0.770943630512999
3.28,1.00767127806472,0.703668734202416
3.29,0.999424602165595,0.757852227792875
3.3,0.982242294312664,0.807072650538451
3.31,0.956594046269006,0.688845957602534
3.32,0.923095508295271,0.628871783287302
3.33,0.882499423022089,0.663557265259612
3.34,0.835688109335252,0.684950599484161
3.35,0.783661993121462,0.549342011005423
3.36,0.727520079744512,0.38954023147568
3.37,0.668430813808851,0.33834798567676
3.38,0.607594670827552,0.3220863534056
3.39,0.546202076285715,0.281551606456824
3.4,0.485391214807527,0.262792611579277
3.41,0.426209888138142,0.260604882508444
3.42,0.369584227194241,0.117251491176143
3.43,0.316295458784775,0.011344751941836
3.44,0.266964725428511,0.101457170745343
3.45,0.22204549285062,0.03181121002359
3.46,0.181823258069631,0.0639859363637336
3.47,0.146422649867211,-0.196714946635786
3.48,0.115822049448838,-0.0838057455777455
3.49,0.0898751977470378,-0.00650388914542661
3.5,0.068337938630978,-0.0763718093798746
3.51,0.050896738957805,-0.216308033197545
3.52,0.037194640738505,-0.102722191195336
3.53,0.0268504906516789,-0.239303403061952
3.54,0.0194689310466158,-0.211045720614302
3.55,0.0146414289484854,-0.0824046717055464
3.56,0.0119417342875329,-0.201088030529554
3.57,0.0109214908641654,-0.110345985315712
3.58,0.0111122989102872,-0.197434277602123
3.59,0.0120388975483467,-0.296980250807531
3.6,0.0132446052578585,-0.235197653539522
3.61,0.0143257501988079,-0.25088519320837
3.62,0.0149679709758947,-0.199462944952365
3.63,0.0149753288861175,-0.185141984779668
3.64,0.0142839433117475,-0.168688755463019
3.65,0.0129552747774381,-0.174667604754475
3.66,0.0111492878854298,-0.0030645524126259
3.67,0.00908299755260901,-0.26478213574067
3.68,0.00698372644251258,-0.186551604606846
3.69,0.00504762721948909,-0.124708719848947
3.7,0.00341233537129288,-0.0212985061448555
3.71,0.00214862614557446,-0.143029584838259
3.72,0.00127095431410012,-0.0491015988228002
3.73,0.000762290329780814,-0.277522843288115
3.74,0.000605972878491351,-0.0275942425084841
3.75,0.000816935073012407,-0.195497165735062
3.76,0.00146637760769684,-0.158850991499901
3.77,0.00269686178994201,-0.221366709699685
3.78,0.00472772508364701,-0.116954134692739
3.79,0.0078527153539224,0.0212323963652169
3.8,0.0124323508914313,0.0797266719942544
3.81,0.0188829145588373,-0.190749282507727
3.82,0.0276628187038502,-0.0539313201841952
3.83,0.0392561020893544,0.0329078890399784
3.84,0.0541525849060098,-0.0758679994199153
3.85,0.0728247999738808,-0.0559134569930435
3.86,0.0957028576042165,-0.0368586227530518
3.87,0.123149250808895,0.0659223239795937
3.88,0.155435702773426,0.165322282959105
3.89,0.192723311320429,0.148990363391444
3.9,0.235045774425609,0.1651023975743
3.91,0.282294106533871,0.165788463895441
3.92,0.334200788083619,0.284932650471797
3.93,0.390322244959531,0.260460306633973
3.94,0.450020854164303,0.345034809479029
3.95,0.512450585335414,0.520795388174837
3.96,0.576552745087127,0.535821937939442
3.97,0.641068916242071,0.587557323030412
3.98,0.70457637968418,0.614647736710901
3.99,0.765547199635704,0.773875943121617
4,0.82242674739809,0.866404647696013
4.01,0.873722332140633,0.744716268838607
4.02,0.918089461205872,0.866426241723842
4.03,0.954403198905999,0.905599242025791
4.04,0.981805304660793,0.886190477497043
4.05,0.999723420250577,0.87387032865071
4.06,1.00786486897746,0.965117397776871
4.07,1.00619273078807,1.01949011361233
4.08,0.994894293541489,1.07731486831742
4.09,0.974351194725662,0.789315750790112
4.1,0.945117082941565,0.860048463129466
4.11,0.907903824458394,0.857551220920962
4.12,0.863572875255291,0.708522263093831
4.13,0.813125872671563,0.734529487230844
4.14,0.757688449968751,0.680394483851376
4.15,0.69848347842031,0.629022848070972
4.16,0.636793370714576,0.453484546404884
4.17,0.573914399233619,0.586240392048668
4.18,0.511108071125988,0.459262217302784
4.19,0.449554949910917,0.573357945649015
4.2,0.390315143352479,0.459610625267943
4.21,0.334297756109757,0.227088628954614
4.22,0.282239848104209,0.302637218287113
4.23,0.234694487121388,0.203168650008357
4.24,0.192027441884825,0.282512829580413
4.25,0.154422503532786,0.181534372375783
4.26,0.12189565382813,0.103638971653164
4.27,0.0943177455524123,0.159128662426538
4.28,0.0714439126969266,0.116819983121869
4.29,0.0529460525512465,0.0763659901166875
4.3,0.0384432978163888,0.240038826794325
4.31,0.0275253238319851,0.0285860236233161
4.32,0.0197650838999699,0.0289126934375252
4.33,0.0147208709932036,-0.0587534630844288
4.34,0.0119314631944221,0.0622704056841965
4.35,0.0109111015838284,0.139090909013583
4.36,0.0111518757999597,-0.0942485084713354
4.37,0.0121391314727507,0.0557923827754814
4.38,0.0133811458112549,-0.0141567736880996
4.39,0.0144488812721184,0.200120830097837
4.4,0.015016990304023,0.197275018391446
4.41,0.014895138712095,0.118577100851858
4.42,0.0140400836095541,0.208589516141491
4.43,0.0125435489032792,0.0266258342099943
4.44,0.0105974107493401,0.173366641016633
4.45,0.00844398095232684,0.0515929621722392
4.46,0.00632323912425205,0.125165365525383
4.47,0.00442944253888334,0.0768411071237002
4.48,0.00288654553659478,0.0801458537247968
4.49,0.00174637996771676,0.148138736536464
4.5,0.00100743300649109,0.00254564992168925
4.51,0.000647231452745516,0.0895385249003322
4.52,0.000659124622523068,0.126403886505276
4.53,0.00108495893277045,0.0839500415712656
4.54,0.0020380394012238,0.128609583997811
4.55,0.00371450794641465,0.0994365581908303
4.56,0.00639440186576281,0.26010498957376
4.57,0.0104352434013962,0.194800224577616
4.58,0.0162608994201316,0.38372253215015
4.59,0.0243472235518708,0.0938710522289353
4.6,0.035204615010355,0.236396121636158
4.61,0.0493569518487981,0.356127852590767
4.62,0.0673167291561322,0.233183226576608
4.63,0.0895573680593826,0.147532014992022
4.64,0.116484824419664,0.183404614796141
4.65,0.148411038314658,0.295780226906993
4.66,0.18553103338493,0.443211399764896
4.67,0.227903836193341,0.443605131744265
4.68,0.27543564545884,0.262724530862688
4.69,0.327862857260482,0.432851717231709
4.7,0.384733377476862,0.547654119245116
4.71,0.445387158925391,0.494978542739943
4.72,0.508940288026334,0.733309761256164
4.73,0.574279819477559,0.548712867294299
4.74,0.640077460401939,0.825380573338133
4.75,0.704828240174624,0.849837232408565
4.76,0.766915581647695,0.906362359140307
4.77,0.824697914675642,0.983145013118702
4.78,0.876606077114457,1.08529293576658
4.79,0.921237225599693,1.13877594331743
4.8,0.957431144082484,1.12750924839175
4.81,0.984318812226856,1.02070704291973
4.82,1.00133971456187,1.07880712254695
4.83,1.008231574129,1.08544938913048
4.84,1.00500174589445,1.262888724538
4.85,0.991891781488179,1.1714503223864
4.86,0.969345219562391,1.19203889161054
4.87,0.937984289583965,1.01642300695528
4.88,0.898595694118406,1.06089613128768
4.89,0.852120959602721,1.1042199557776
4.9,0.799644540296194,0.994397077702817
4.91,0.742373456209878,0.944057055841698
4.92,0.681605181823602,0.888570297695959
4.93,0.618684440619736,0.930082167068457
4.94,0.554952972093453,0.722040080361155
4.95,0.491698106322582,0.763779676814231
4.96,0.430105781420032,0.721656145012517
4.97,0.371221957653251,0.497367890401338
4.98,0.315924197947893,0.548502958149407
4.99,0.264903475512474,0.488427894157908
5,0.218655569136246,0.526910200635439
5.01,0.177481608424261,0.478045024470564
5.02,0.141497812026379,0.370097343658038
5.03,0.110654457573093,0.351702144439785
5.04,0.0847631671505216,0.258644717367193
5.05,0.0635298132448781,0.280456379686162
5.06,0.0465884658906972,0.198266476095519
5.07,0.0335308184685528,0.191382549556054
5.08,0.0239262600358122,0.162617961925998
5.09,0.0173303842792073,0.321687134571886
5.1,0.0132835890200508,0.340999479749003
5.11,0.0113052107389616,0.217800207968031
5.12,0.0108908533182797,0.161069917847398
5.13,0.0115201279712485,0.245903596293463
5.14,0.0126787534668095,0.434323613955215
5.15,0.0138937758698179,0.420319689266446
5.16,0.014775272496417,0.121093946298318
5.17,0.0150542404412643,0.231139646595641
5.18,0.0146058739497814,0.382594746289259
5.19,0.0134504912130257,0.256359015638476
5.2,0.0117301299199256,0.386085862917749
5.21,0.00966548238188082,0.230088834640097
5.22,0.0075032465837946,0.303512598371063
5.23,0.00546641354675336,0.271469173159122
5.24,0.00371879350618946,0.510513398110016
5.25,0.00235073305825329,0.324814092257269
5.26,0.00138701879585107,0.154001611981544
5.27,0.000812343029973486,0.201902529719185
5.28,0.000606085934068012,0.279840896814256
5.29,0.000777375724327551,0.0984809252379586
5.3,0.00139321426416909,0.106943906275853
5.31,0.00259584022470385,0.162825656001952
5.32,0.00460902356543038,0.226774652536133
5.33,0.00773543196177815,0.356824206433333
5.34,0.0123480092643568,0.240317648088652
5.35,0.0188776516539488,0.281654644284928
5.36,0.0277981197179323,0.272249466360391
5.37,0.0396079984683894,0.232594598667545
5.38,0.0548092440936076,0.412928607548247
5.39,0.073882518032893,0.234995454447434
5.4,0.0972606472809066,0.327462821432488
5.41,0.12530243286815,0.345548429135104
5.42,0.158269044461611,0.448459564035084
5.43,0.196304229802414,0.572003898677317
5.44,0.239417945150633,0.527097467006445
5.45,0.287471598649045,0.644042153554804
5.46,0.340162750905544,0.646550558995502
5.47,0.397008307447653,0.591694052493651
5.48,0.457327766080504,0.707769496776169
5.49,0.520231070005569,0.87345473755566
5.5,0.584617800701018,0.702026531570097
5.51,0.649194663106421,0.916612666060395
5.52,0.712515908412884,0.94048925766116
5.53,0.773046840159,1.08282039201736
5.54,0.829245050620384,1.12779771645146
5.55,0.879649219344038,1.1412157499774
5.56,0.922962767745762,1.27876745763084
5.57,0.958120333563832,1.07131300655866
5.58,0.9843288209955,1.29122583278461
5.59,1.00108059830433,1.10752035475525
5.6,1.008142507506,1.28668035620356
5.61,1.00552891708419,1.24289484113123
5.62,0.993468834800479,1.29967431611634
5.63,0.972375800536717,1.20609162384436
5.64,0.942825604353031,1.04328328686669
5.65,0.905542242048722,0.969369717585845
5.66,0.861388535540915,1.12757652170563
5.67,0.811355741419412,1.02680989977296
5.68,0.756546719319098,0.930561427028872
5.69,0.698149452879268,0.89129007037968
5.7,0.637400902450762,0.800002047675013
5.71,0.575544112683465,0.777518151689524
5.72,0.513783249915328,0.652046047229073
5.73,0.453241425192064,0.505533143688261
5.74,0.394925022712632,0.586414485691145
5.75,0.339696495932749,0.630461038144021
5.76,0.288256006019212,0.643630290083439
5.77,0.241131401409537,0.444534056183989
5.78,0.198675961308175,0.393383941151237
5.79,0.1610737011186,0.43720283731479
5.8,0.128352293000014,0.329619466368372
5.81,0.100403307584893,0.260446227518472
5.82,0.0770084042772595,0.130675489527331
5.83,0.0578686099986547,0.147203090442302
5.84,0.042632588711924,0.26331027489202
5.85,0.0309195277478192,0.100027137642005
5.86,0.0223333808087171,0.289761303297493
5.87,0.0164676170193919,0.0899408406877912
5.88,0.0129026747049276,0.176206410848039
5.89,0.0112009857934535,0.18737104225059
5.9,0.0109056979698398,0.183770107560872
5.91,0.0115484486955355,0.195095652281444
5.92,0.0126687820045192,0.229408971684045
5.93,0.0138438038797177,0.170041725035352
5.94,0.0147226970174414,0.158538610476098
5.95,0.0150580943029856,0.188955608877787
5.96,0.0147259973505182,0.138447752961044
5.97,0.0137281563315464,0.292445780364811
5.98,0.012175013661465,-0.00843831708990728
5.99,0.0102522305213735,0.242671525000985
6,0.00817799458030974,0.135782104071551
6.01,0.00616052059529137,0.184624534922013
6.02,0.00436480388042224,0.225223446085179
6.03,0.0028949740668509,0.208727698854672
6.04,0.00179443125602255,0.0850542892236535
6.05,0.00106161361059964,0.25937711015743
6.06,0.000675972952904354,0.0010907166711748
6.07,0.000627308185428929,0.197029830331947
6.08,0.000942157228625351,0.0843184195749669
6.09,0.0017029821159024,-0.0303918149138577
6.1,0.00305851442529415,-0.0279454436988427
6.11,0.0052259317003106,0.140045554847143
6.12,0.00848686349174324,0.298497041458074
6.13,0.0131794002164767,0.144077630434792
6.14,0.0196875836995273,0.216058391341506
6.15,0.0284288624351197,0.198290079321804
6.16,0.0398392783662201,0.0870777299050858
6.17,0.0543560638759599,0.227101590443559
6.18,0.0723978568161203,0.19386517200186
6.19,0.0943435538263664,0.200887430924324
6.2,0.120511436944979,0.287383965545807
6.21,0.151140233855154,0.294470817277969
6.22,0.186373100209373,0.216516530467559
6.23,0.226244388908227,0.334851356805528
6.24,0.270668007736419,0.272988589766907
6.25,0.319425729795297,0.440276085388314
6.26,0.372154380046973,0.404600263985998
6.27,0.428332359001765,0.528230351196184
6.28,0.487268032325709,0.577087282195359
6.29,0.548094358030077,0.583483573879331
6.3,0.609774938706449,0.700666156918996
6.31,0.671125926071439,0.767344375610955
6.32,0.730855804934318,0.759279894699691
6.33,0.787621537512952,0.924882207147979
6.34,0.840095787762508,0.991586145190144
6.35,0.887037056490108,0.870737111774248
6.36,0.927353437058443,0.898401466518565
6.37,0.960151754047806,1.03104426583106
6.38,0.984766844123348,0.938077454261619
6.39,1.00076987501421,0.987752683837046
6.4,1.00795874092755,1.09168681158488
6.41,1.00633660809654,0.976504931570165
6.42,0.996085860459244,0.854432269367146
6.43,0.97754383890085,1.03983907189616
6.44,0.951184310084718,0.82867085526399
6.45,0.91760541523551,0.811471867358044
6.46,0.877521951879191,0.634866092934346
6.47,0.831758067944021,0.893580365167012
6.48,0.781236206500239,0.793192654682823
6.49,0.726959322619395,0.752358444271134
6.5,0.669985461430544,0.722533660418246
6.51,0.61139598615726,0.589555134903984
6.52,0.552260381750922,0.441886761167677
6.53,0.493601219738445,0.513335494729391
6.54,0.43636252422284,0.511828545509186
6.55,0.381383741622159,0.229133028927249
6.56,0.329380283461048,0.245164387335129
6.57,0.280930648563186,0.218477379374923
6.58,0.236469696525933,0.0908119244075688
6.59,0.196287708804623,0.205931748690345
6.6,0.1605351639216,0.0633236275621122
6.61,0.129233297109655,0.17712570386469
6.62,0.102290224130211,0.0505376617243502
6.63,0.0795216260703657,0.0783734516589132
6.64,0.0606739365340157,0.1228151826976
6.65,0.045447070712735,0.000611417388695839
6.66,0.0335134525274531,0.0502395124808154
6.67,0.0245307372882606,-0.0313386133999489
6.68,0.0181471870934003,-0.178811128851407
6.69,0.0140007727352145,-0.0635162028286358
6.7,0.0117151214034263,-0.0134127071493902
6.71,0.0108967087522869,-0.0357792450124257
6.72,0.0111376859344459,-0.0918432868506687
6.73,0.0120272901134153,-0.177678945208337
6.74,0.0131722223501027,-0.0306089213611586
6.75,0.0142233925727662,-0.157770593794177
6.76,0.0149039187158224,-0.18708509711115
6.77,0.0150320290909032,-0.0423630707800781
6.78,0.0145330090113424,-0.192207277886554
6.79,0.0134365058892646,-0.0782352330541779
6.8,0.0118588089042104,-0.102224515603686
6.81,0.00997325299364345,-0.213650987862289
6.82,0.00797468974700179,-0.0180570042237725
6.83,0.00604526359221397,-0.164803477656499
6.84,0.00432821301876015,-0.0260912143932076
6.85,0.00291428801074409,-0.164475295534799
6.86,0.00184228348247035,-0.176493647567619
6.87,0.00111201187579465,-0.136636622748103
6.88,0.000705611173417883,-0.166082847796219
6.89,0.000611955153507993,-0.168926981485791
6.9,0.000849221542422446,-0.213214787400335
6.91,0.00148207873142331,-0.242213071448518
6.92,0.0026318855961182,-0.0977530636337476
6.93,0.00448010626088106,-0.212219982960451
6.94,0.00726631772339498,-0.257780919788587
6.95,0.0112825260350151,-0.186973247239521
6.96,0.0168651267366706,-0.207504793401328
6.97,0.024385107192249,-0.313969340736228
6.98,0.034236424905368,-0.154575520240166
6.99,0.0468222341154668,-0.107914559961957
7,0.0625388721690201,-0.084538092312479
7.01,0.0817581049967951,-0.0599839690284875
7.02,0.104808744232631,-0.150896063948307
7.03,0.131959042999522,-0.0721788141492456
7.04,0.163401046818931,-0.0977548954694128
7.05,0.199237354838582,-0.0344590655689135
7.06,0.239469814157838,-0.0425182668361941
7.07,0.283988951678664,0.00716748434573722
7.08,0.332562845920843,0.193181265247756
7.09,0.38482486011221,0.171019610644616
7.1,0.440261091318775,0.225355510414103
7.11,0.498200118483522,0.44020882781142
7.12,0.557809038297624,0.354661580593634
7.13,0.618100250962265,0.374576847635572
7.14,0.677952614078485,0.535133354302815
7.15,0.7361484265797,0.492560421076381
7.16,0.791424669994847,0.694683825480958
7.17,0.84253378406752,0.603819910331982
7.18,0.88830686124255,0.628627788009853
7.19,0.927711226552201,0.622027778287441
7.2,0.959895255603238,0.772147012010675
7.21,0.984215799114915,0.885732045986009
7.22,1.00024708691865,0.75423782326795
7.23,1.00777355426018,0.809480132561357
7.24,1.00677173626074,0.812586763781984
7.25,0.997387547125608,0.888713476219841
7.26,0.979914692320528,0.809019544993142
7.27,0.954777953304112,0.643367321465357
7.28,0.922522330159682,0.639782115130448
7.29,0.883806389935823,0.595701397830702
7.3,0.839396407409117,0.620924842874754
7.31,0.790157433066138,0.558705330310493
7.32,0.737038277791086,0.534042185784167
7.33,0.681049164338216,0.39478028326066
7.34,0.623232825982232,0.358237938758214
7.35,0.564631487968347,0.387892313957223
7.36,0.506253004984599,0.261120762666733
7.37,0.449039331625469,0.15846203203917
7.38,0.393839682794645,0.232273835912618
7.39,0.34138961786852,0.102231154292232
7.4,0.292296305402041,-0.0221979052491262
7.41,0.247029694941633,0.141746154994583
7.42,0.205919286273002,-0.130428354582959
7.43,0.169156442045487,-0.217020545813002
7.44,0.136802394357502,-0.287890250722162
7.45,0.108801933428807,-0.0842512941964486
7.46,0.0850021051453208,-0.203422225942806
7.47,0.0651742191508578,-0.203275701113
7.48,0.0490364525555918,-0.174758930754471
7.49,0.0362737998305732,-0.248523647324343
7.5,0.0265524483842535,-0.350036982536407
7.51,0.0195269630229426,-0.384818876901429
7.52,0.0148406924933963,-0.261149501156986
7.53,0.012121999999042,-0.222957695692096
7.54,0.0109805477092579,-0.420575344631997
7.55,0.0110083043481,-0.215311733445958
7.56,0.0117888917325284,-0.204169220295939
7.57,0.0129165037079905,-0.133380033271796
7.58,0.0140225389455442,-0.222761026673698
7.59,0.0148051961869255,-0.218796584109978
7.6,0.0150555071840673,-0.186563922935285
7.61,0.0146732627138723,-0.23678758599519
7.62,0.013668148763451,-0.242532698449803
7.63,0.0121447119562409,-0.228246608123394
7.64,0.010273623360583,-0.179661257470798
7.65,0.00825503135166396,-0.275467972991787
7.66,0.00628165547732477,-0.282603803801267
7.67,0.00450917288919688,-0.31328276107446
7.68,0.00303946382976332,-0.321768414748179
7.69,0.00191903164364388,-0.219685172891665
7.7,0.00115134920571575,-0.122320643440018
7.71,0.000718989283175501,-0.323517870460304
7.72,0.000609878981784451,-0.260612629933602
7.73,0.000842113202332842,-0.327077403134218
7.74,0.00148319792540035,-0.170714546741564
7.75,0.00266172891959889,-0.266851933787591
7.76,0.00457158007260213,-0.224463024436138
7.77,0.00747005952236037,-0.20722791715972
7.78,0.0116719138882446,-0.31434960661445
7.79,0.0175406401228631,-0.23161089057865
7.8,0.025477720108718,-0.232608460858113
7.81,0.0359096431943318,-0.148881644585412
7.82,0.0492723192700886,-0.287162318275952
7.83,0.065992819859378,-0.266689062776324
7.84,0.0864691140940299,-0.0878111918883599
7.85,0.111049180310005,-0.170367946677326
7.86,0.140011151860269,-0.145956697068073
7.87,0.17354577130342,-0.0492876664551687
7.88,0.211741473593335,-0.0444509820761651
7.89,0.254571297928543,0.174679287609512
7.9,0.301880099183981,0.0948419014918898
7.91,0.353370675279881,0.139940109172099
7.92,0.408588621869434,0.25820783549381
7.93,0.466907712894671,0.238776752347594
7.94,0.527519731676564,0.309657918811255
7.95,0.589434094757504,0.28345967798835
7.96,0.651492580002048,0.249569148551895
7.97,0.712402655240649,0.399040804534427
7.98,0.770789547761907,0.564874835464709
7.99,0.825263103735826,0.529338795639039
8,0.874491806116385,0.718159557672608
8.01,0.917274177377484,0.765708023068359
8.02,0.95259792214406,0.762319659801847
8.03,0.979679638638768,0.757822217171179
8.04,0.997982109986929,0.684985142848373
8.05,1.00721091218362,0.780776159295319
8.06,1.00729601563487,0.771404617710657
8.07,0.998366139617117,0.853864030746303
8.08,0.980723366626309,0.889989764069646
8.09,0.954823192476536,0.801656266852777
8.1,0.921261660729895,0.639959167369146
8.11,0.880767704026419,0.825655320161202
8.12,0.834196397161852,0.72851578670018
8.13,0.782518177329144,0.616209973493076
8.14,0.726800232611721,0.368445709625392
8.15,0.668178636288219,0.41236492066304
8.16,0.607822500610716,0.425312965842707
8.17,0.546893529562994,0.43323131340543
8.18,0.486505276653523,0.220036608375805
8.19,0.427686067669831,0.515028886986671
8.2,0.371348305223001,4.48519128600777e-05
8.21,0.318265371702475,0.134980731135108
8.22,0.269056202187672,0.0865002209346632
8.23,0.224177137543436,0.0119666830552244
8.24,0.183920819343857,0.00194073744035669
8.25,0.148422249997813,0.0540632090482519
8.26,0.117672198718515,-0.103282319896074
8.27,0.0915375323178654,-0.223330270465421
8.28,0.0697867999439709,-0.0681577411341426
8.29,0.0521179208565438,-0.0906491185049662
8.3,0.0381837906059143,-0.102633946045788
8.31,0.0276116814330587,-0.0558420809821024
8.32,0.0200137769086367,-0.115026215479938
8.33,0.0149888202768776,-0.0539837600601103
8.34,0.0121179103560262,-0.276841984389687
8.35,0.0109598859638464,-0.204415870537412
8.36,0.0110525163982541,-0.0831611763043582
8.37,0.011924349602757,-0.135398195594286
8.38,0.01311877067769,-0.0273401813667604
8.39,0.0142275205004878,-0.179119068599543
8.4,0.0149269947939227,-0.0370362832550164
8.41,0.0150084563067427,-0.145259161186252
8.42,0.0143937218978205,-0.178275594287591
8.43,0.013130980230197,-0.114764837983695
8.44,0.0113703202228265,-0.0819448420425653
8.45,0.00932384215107871,-0.182995737066212
8.46,0.00721926916979902,-0.144795759286248
8.47,0.00525755169129542,-0.182103734672732
8.48,0.0035836286863512,0.000503410327311063
8.49,0.00227577024281687,-0.0209966408089363
8.5,0.00135400013611017,-0.159133368489894
8.51,0.000803508904835884,-0.0292029033847413
8.52,0.000606016447201619,-0.0911292321022926
8.53,0.000771386892174694,-0.156269709146554
8.54,0.00136328718964997,-0.0295787067226087
8.55,0.00251548595188966,-0.0846140111878387
8.56,0.00443836748085457,0.0169153157704706
8.57,0.00741737718970169,-0.0627420565196053
8.58,0.0118058966884956,0.0556574756202422
8.59,0.01801456923572,-0.0705721042716277
8.6,0.0264979541791015,-0.000347276127562919
8.61,0.0377383561342917,0.0263577654085082
8.62,0.0522263388077383,0.0369636273771545
8.63,0.0704379418194869,0.0524218980609031
8.64,0.0928096392156965,0.0610249504851085
8.65,0.119712985739324,0.0851311678419635
8.66,0.151431099595474,0.236758558024795
8.67,0.188138384500903,0.240355907695958
8.68,0.229883460996123,0.164105517618483
8.69,0.276573845642733,0.374751212052367
8.7,0.327960308575989,0.329458432195525
8.71,0.38361962219508,0.325739126373834
8.72,0.442936584747277,0.453343870753896
8.73,0.505089097042517,0.492792869643563
8.74,0.569042547904262,0.580852100149856
8.75,0.633560624130246,0.562878376029269
8.76,0.697238134272234,0.642294922357342
8.77,0.758557552325326,0.881685372278882
8.78,0.81596566439841,0.910418440565008
8.79,0.867961493021826,0.818252084082125
8.8,0.913183258942445,0.865605875673715
8.81,0.950481727955416,1.11621513360066
8.82,0.978970164256588,1.16299173673321
8.83,0.998046491728773,0.970598859826289
8.84,1.00738954557182,0.941347617851134
8.85,1.00693658699036,1.25837023516514
8.86,0.996852018099509,1.06017996778419
8.87,0.977496809047131,1.04078944849513
8.88,0.949404941954309,1.0072342935054
8.89,0.913268481763105,1.08077160431296
8.9,0.869928394503563,0.913070279381412
8.91,0.820365428373985,0.998950647416363
8.92,0.765685019367035,0.813208796643855
8.93,0.707092124219375,0.816009922564554
8.94,0.645855179309471,0.634998370705765
8.95,0.583261730141011,0.672025660787788
8.96,0.520570521693991,0.695038774020644
8.97,0.45896540070334,0.52758149059097
8.98,0.399515389525166,0.587060176819592
8.99,0.343143447056746,0.649507800528274
9,0.290604633248347,0.45737228684319
9.01,0.242473321055299,0.317205521403869
9.02,0.199138935390632,0.30466809508797
9.03,0.160810095126407,0.227077309369282
9.04,0.127527337340931,0.405954000086518
9.05,0.0991842204894373,-0.0302532688861621
9.06,0.0755553442310931,0.192402434958504
9.07,0.0563280488388155,0.17860516641219
9.08,0.0411330597171142,0.174743400388688
9.09,0.0295690026597148,0.0245240230450102
9.1,0.0212170726313655,0.161117851995171
9.11,0.0156450731378196,0.156261874205367
9.12,0.0124037181716459,0.241673024524426
9.13,0.0110212044727305,0.184433435898104
9.14,0.011003336832923,0.234696628680614
9.15,0.0118451856538352,0.0726024056007872
9.16,0.0130565352819503,0.143335692663893
9.17,0.0141983319429086,0.172616372084136
9.18,0.0149226433824304,0.182599108830095
9.19,0.0150059904507618,0.108192113035654
9.2,0.0143663841578659,0.284155200969798
9.21,0.0130580465731521,0.118306592553138
9.22,0.0112435661629749,0.0389940590423346
9.23,0.00914934250566433,0.200919246922467
9.24,0.00701468135883054,0.222394727881453
9.25,0.00504640996205379,0.245406106608949
9.26,0.00338899989854699,0.0951000928866732
9.27,0.00211562911556522,0.152214947997827
9.28,0.00123992827392584,0.0674453684892871
9.29,0.000743137897675691,0.243289601588263
9.3,0.000608476719217721,0.205841155191816
9.31,0.000854282394047106,0.253789905242854
9.32,0.00155957135819946,0.232439466170359
9.33,0.00287898855702989,0.138841577846459
9.34,0.00504734643838704,0.206299652625365
9.35,0.00837602743712141,0.0448604590407067
9.36,0.0132440232094467,0.244878290885273
9.37,0.0200855929274134,0.291200903167652
9.38,0.0293752119595036,0.155087438479665
9.39,0.041609502787428,0.0686291484019733
9.4,0.0572857273951209,0.135453728152183
9.41,0.0768771725758544,0.189876308409391
9.42,0.100806880739808,0.404149964098233
9.43,0.129421956785135,0.335741671467452
9.44,0.16297056652632,0.271925578886616
9.45,0.201582648529638,0.455914837656867
9.46,0.24525375094487,0.28233564140576
9.47,0.293830105415927,0.487619109538553
9.48,0.346992879007991,0.651348712470368
9.49,0.404240903158193,0.593969498896691
9.5,0.464873793990104,0.788065016838777
9.51,0.527980327126677,0.892014294812249
9.52,0.592438947843024,0.72102997619
9.53,0.656937270150106,0.788339473766236
9.54,0.720014862760967,0.8719682849124
9.55,0.780128952988158,1.04901868907095
9.56,0.835737156341913,1.13057330236406
9.57,0.885386661062025,1.21154221899601
9.58,0.927797024287087,1.26253035933942
9.59,0.961924725967671,1.28006567828729
9.6,0.987001697459908,1.29553063932529
9.61,1.00254600998974,1.25017875166246
9.62,1.00834897753859,1.17303374676963
9.63,1.00444729998928,1.18321832037449
9.64,0.991090349785603,1.26164479614682
9.65,0.968711080587882,1.3423779954787
9.66,0.937905116671213,1.31435916887409
9.67,0.899417861908672,0.986245997977137
9.68,0.854135576750005,1.02923698001544
9.69,0.803074507237296,1.15927991998739
9.7,0.747362698926016,0.905715931645039
9.71,0.688211609233382,0.803368097116601
9.72,0.626877953377995,0.919819533856285
9.73,0.564619139448789,0.948880212475604
9.74,0.502647243198075,0.903651776032227
9.75,0.442086438328471,0.731529472972902
9.76,0.383937478589699,0.688854188400114
9.77,0.32905098940718,0.621680709803583
9.78,0.278109779672573,0.52491652286646
9.79,0.231619630410334,0.210518215269326
9.8,0.18990806401714,0.499738540968494
9.81,0.153131013100911,0.371096016073734
9.82,0.12128747573838,0.451584031244182
9.83,0.0942417028016357,0.293781941645003
9.84,0.0717511688646691,0.190828992484099
9.85,0.053496970472649,0.403058580065086
9.86,0.0391121298199887,0.303614950144635
9.87,0.0282032954225991,0.55782292159643
9.88,0.0203628827978435,0.34356041414996
9.89,0.0151715397165714,0.348909374022491
9.9,0.0121941122987769,0.323016813930136
9.91,0.010974866573272,0.212232262870721
9.92,0.0110385284904588,0.230696543677764
9.93,0.0119022223489446,0.34569705445696
9.94,0.0130998816571802,0.346186271198036
9.95,0.014216206224026,0.309152800939423
9.96,0.014923214825293,0.183870473403649
9.97,0.0150103048422481,0.397179173151776
9.98,0.0143993270325729,0.151930365527775
9.99,0.0131394808814301,0.224792682264259
10,0.0113819017026261,0.44308189445956
10.01,0.00933911437107608,0.296302220493461
10.02,0.00723845134321799,0.329221655525828
10.03,0.00527990607106428,0.279006824254206
10.04,0.0036073767675422,0.166699727649799
10.05,0.00229842392013428,0.196418403574998
10.06,0.00137277916202675,0.255616871806404
10.07,0.000815400686985965,0.00662051824411994
10.08,0.000607099224367105,0.171870692672319
10.09,0.000755236019856515,0.302706483492924
10.1,0.00131851870072698,0.214428793503361
10.11,0.00242266482619216,0.215597494203851
10.12,0.00426657187143959,0.308523774555992
10.13,0.00712068315200907,0.19705499326226
10.14,0.0113199978921447,0.293849452212855
10.15,0.017253742801195,0.134390272412027
10.16,0.025352654283407,0.15672889752977
10.17,0.0360738253962119,0.130332739816846
10.18,0.0498826934212913,0.283388429119924
10.19,0.0672321347929725,0.27601911380716
10.2,0.088539520261848,0.427646414383571
10.21,0.114163423707391,0.333015395262834
10.22,0.144381942489274,0.473271762197831
10.23,0.179374026347998,0.553934282990862
10.24,0.219204001059421,0.397182116173552
10.25,0.263808162303509,0.510405890244827
10.26,0.31298160075107,0.459140989654818
10.27,0.366363829203363,0.637341314055608
10.28,0.423423407722162,0.547127746853901
10.29,0.483444152187114,0.609518176436416
10.3,0.545517788015368,0.774880180251702
10.31,0.608549073664125,0.820100481070491
10.32,0.671278729581479,0.894563630602769
10.33,0.73232680929177,0.938098545021821
10.34,0.790254987035719,0.946100062576171
10.35,0.843641733935286,1.0292359217134
10.36,0.891160863617432,1.21462025180668
10.37,0.931652578668366,1.12186694637327
10.38,0.964177456193033,1.04810695250207
10.39,0.98804747923811,1.10761779448709
10.4,1.00283322336068,1.09951388515084
10.41,1.00835121009018,1.1188252585957
10.42,1.00463886404832,1.08385395161501
10.43,0.991925577710381,0.959545595369429
10.44,0.970606980491397,1.19937234771276
10.45,0.941226279079759,1.1667884009676
10.46,0.904462653922535,1.05465910464807
10.47,0.861123439519001,0.970917295087717
10.48,0.812135143710316,0.912279367009897
10.49,0.758528626882969,0.952935690958395
10.5,0.701415650204213,0.879407565746302
10.51,0.641956699809363,0.832882982104544
10.52,0.581322520978208,0.7362022830718
10.53,0.520653363182867,0.721933214355686
10.54,0.461020199176684,0.644511466690247
10.55,0.403391305679929,0.594267791331411
10.56,0.348606124657723,0.531677530233914
10.57,0.297356921589076,0.570857892327076
10.58,0.250177910875016,0.303454006439907
10.59,0.207441364240189,0.462888650158083
10.6,0.16936051699353,0.274481828868989
10.61,0.135999373693474,0.259710417589854
10.62,0.10728934203449,0.239712236466482
10.63,0.0830517987190343,0.17013379136676
10.64,0.0630243970926299,-0.0213616679775083
10.65,0.0468876751818111,0.138727964858024
10.66,0.0342879505194877,0.151407565125294
10.67,0.0248530745021467,-0.00344388376826416
10.68,0.0181994453792307,0.169807073192815
10.69,0.0139313294406382,0.0706324956913224
10.7,0.011636197658913,0.228789246580756
10.71,0.0108815002208059,0.130235934497521
10.72,0.011218338979227,0.043093223559862
10.73,0.0121956357066717,0.117386099041278
10.74,0.0133850550547161,0.12254043078584
10.75,0.014413099416588,0.172685538055234
10.76,0.0149936751520803,0.0844961558211356
10.77,0.0149531096294181,-0.0689367316745801
10.78,0.0142406248272649,-0.0142395342815302
10.79,0.0129204628560821,0.0165319835084298
10.8,0.0111463336278692,0.114123803522289
10.81,0.00912331332137024,0.0518841711344789
10.82,0.00706545501925921,0.0201227186758515
10.83,0.00515828234100387,-0.00357913506171142
10.84,0.00353381681903349,0.0713191193701075
10.85,0.00226237241838751,-0.0137372494233973
10.86,0.00136111007392064,0.0182576809701957
10.87,0.000815530381557851,-0.0290464054898952
10.88,0.000607710827152381,-0.0685190232651464
10.89,0.00074464447814093,0.115682287447611
10.9,0.00128134547852268,-0.0690134662866754
10.91,0.00233576423833918,0.0398581641787056
10.92,0.00409507743629889,-0.0131105329811701
10.93,0.00681476870295741,-0.0530482357675564
10.94,0.0108126590757198,0.0529298416541903
10.95,0.0164597316930782,0.0642375584121718
10.96,0.0241686707640026,0.139820620147388
10.97,0.0343801143704501,0.0714254969158788
10.98,0.0475462067507523,0.0440428720397721
10.99,0.0641113122486274,0.276428095677591
11,0.0844905281916645,0.0331314792765798
11.01,0.109047451132154,0.0260008051325604
11.02,0.138073017036814,0.0890167566459304
11.03,0.171766866497311,0.153232587825898
11.04,0.210221660167142,0.245102848030578
11.05,0.253409525989625,0.270074305943186
11.06,0.301168986187976,0.272659682850024
11.07,0.353190834310585,0.261173983718245
11.08,0.409002711735266,0.472258943665539
11.09,0.467954281820419,0.510893895011703
11.1,0.529207189806064,0.43746674567276
11.11,0.591735491095471,0.609467037549723
11.12,0.654342128271139,0.649724617171428
11.13,0.71569499914131,0.755282521519612
11.14,0.774382492096283,0.738925190023858
11.15,0.828983986675425,0.686882632989415
11.16,0.878146986589733,0.888152310287365
11.17,0.92066046899377,0.804800226057372
11.18,0.955514427948671,0.936770957076252
11.19,0.981938456465506,1.0515508914174
11.2,0.999416783672771,0.818311301571376
11.21,1.00768216475482,1.06171533106976
11.22,1.00669499715567,1.04072127359556
11.23,0.996615929447599,0.876800859206489
11.24,0.977779637411591,0.876880575246955
11.25,0.950674748422621,0.811747219502981
11.26,0.9159311130724,0.782995574485485
11.27,0.874312034368875,0.830146687895362
11.28,0.826706786270273,0.661041777174702
11.29,0.774118378788808,0.661949180121955
11.3,0.717642971040153,0.606011897364666
11.31,0.658439919352736,0.547438437857976
11.32,0.597694193963526,0.505797129065783
11.33,0.536574892388956,0.554771226764558
11.34,0.47619429151165,0.327462277851907
11.35,0.417571314046389,0.238281069115922
11.36,0.361601899587049,0.306232575189734
11.37,0.309037247571459,0.217693404014944
11.38,0.260469834851125,0.154544959905097
11.39,0.216326769428091,0.135835474414735
11.4,0.176870275793435,-0.0668125255762258
11.41,0.142205460414127,0.0936076880849214
11.42,0.112295461350253,0.0120399444649271
11.43,0.0869833414859559,0.0236380155357581
11.44,0.0660187350230644,-0.124167817945965
11.45,0.0490857960195639,-0.243402125092264
11.46,0.0358281321563995,-0.1508715978959
11.47,0.025866747056308,-0.197385150017058
11.48,0.0188087729416279,0.0431828278103225
11.49,0.0142476021563879,-0.174990134439097
11.5,0.011758064033139,-0.164339885790525
11.51,0.0108924525009641,-0.065566588854506
11.52,0.0111835667864771,-0.103308457225098
11.53,0.0121591050718029,-0.100706373322718
11.54,0.0133681218737723,0.0547948658090892
11.55,0.0144158859129252,-0.144091851003602
11.56,0.0149997832855684,-0.00687710457105234
11.57,0.0149372116472681,-0.141516986952377
11.58,0.0141774301609739,-0.281722965386014
11.59,0.0127929224901191,-0.346958306330791
11.6,0.010950993080174,-0.121003730401455
11.61,0.00887150215659396,-0.257320788805006
11.62,0.00678026886867751,-0.178401548729705
11.63,0.00486864433800256,-0.0437587497295874
11.64,0.00326783832355732,-0.161963264446462
11.65,0.0020424506757267,-0.216109010774847
11.66,0.00120264974578693,-0.350087802752397
11.67,0.000730082401913105,-0.262749117994653
11.68,0.000610094115998424,-0.246931461444313
11.69,0.000862677431875432,-0.147919328507042
11.7,0.00156643632921086,-0.165262900282769
11.71,0.00287281410667588,-0.203464230956404
11.72,0.00501072210280334,-0.189932451448524
11.73,0.00828358780214974,-0.225997495496591
11.74,0.0130613193425893,-0.197579916895305
11.75,0.0197689874991386,-0.17334397872804
11.76,0.0288728291741764,-0.151787821049657
11.77,0.0408632512013685,-0.031224905020772
11.78,0.0562343734910407,-0.252689225941085
11.79,0.0754603322561638,-0.0281380808112747
11.8,0.0989696383924697,-0.0704713390038905
11.81,0.127119691694619,-0.221204892508188
11.82,0.160173539388457,-0.0881819323884476
11.83,0.198279999601795,-0.0797093071134652
11.84,0.241456732595052,-0.0622318486115034
11.85,0.289574507840675,-0.0638678688161945
11.86,0.342340605626938,0.0710820961917015
11.87,0.399280478962493,0.131446722021146
11.88,0.459719319142593,0.19960069990706
11.89,0.52276818001679,0.122458711832364
11.9,0.587321574647148,0.386081049205647
11.91,0.652073775706571,0.474125994654479
11.92,0.715558801299631,0.540024609002928
11.93,0.776214516330982,0.598164003345887
11.94,0.832465591904982,0.607838014379154
11.95,0.882814965259799,0.758702540489738
11.96,0.9259306275598,0.613367576564126
11.97,0.96071509114085,0.619320243266634
11.98,0.986348750206579,0.769335932864639
11.99,1.00230444677026,0.792803773551417
12,1.00833703541463,0.703169137983151
12.01,1.00445663613964,0.761305461479893
12.02,0.990896163885921,0.77009520558244
12.03,0.968082252332078,0.751251673776105
12.04,0.936614610160553,0.759042769780012
12.05,0.897253747703648,0.723784055731419
12.06,0.85091270694293,0.408070416086414
12.07,0.79864630922369,0.687998672708613
12.08,0.741632004012768,0.528923143470584
12.09,0.681139161831479,0.386066961250566
12.1,0.618487381813107,0.279667417809266
12.11,0.554997654697063,0.377593846455799
12.12,0.49194196875697,0.268269494472737
12.13,0.430496828603266,0.266760416716141
12.14,0.371704602470371,0.116880061307988
12.15,0.316444538334372,0.0469958203262417
12.16,0.265413635836708,0.194840065316556
12.17,0.219116867783761,-0.193522356978837
12.18,0.177866434912916,-0.0404448844669025
12.19,0.141790215861426,-0.0767861940557749
12.2,0.110849580835035,-0.103145603192987
12.21,0.0848657845683908,-0.119255535493698
12.22,0.0635523374294604,-0.206966992068217
12.23,0.0465487795761807,-0.108141755886807
12.24,0.0334501831133541,-0.410424955631946
12.25,0.0238273513657214,-0.287642990768519
12.26,0.0172353116122075,-0.238766175550929
12.27,0.0132116833778684,-0.219598729116149
12.28,0.0112704973299236,-0.201429662827809
12.29,0.0108994432696106,-0.182475832895753
12.3,0.0115681452345371,-0.352892975089851
12.31,0.0127516545016911,-0.229625060400635
12.32,0.0139678350066648,-0.186253311631005
12.33,0.0148215222122559,-0.120344152521108
12.34,0.0150443777984138,-0.234385440928599
12.35,0.0145188409015504,-0.0969195331074291
12.36,0.0132779454314422,-0.247594829984349
12.37,0.0114791088660336,-0.229797922738287
12.38,0.00935728849889391,-0.214000076124491
12.39,0.00716875159735445,-0.268040376070879
12.4,0.00513919976554182,-0.171403721267956
12.41,0.00342837246503263,-0.336807182800592
12.42,0.002118190229914,-0.22961603386152
12.43,0.00122477821249122,-0.271967340717798
12.44,0.000728572464158624,-0.271608080963261
12.45,0.000613010891164721,-0.134420477927908
12.46,0.000901886167089919,-0.140604622733145
12.47,0.00168789758700316,-0.0946459052242205
12.48,0.0031489355347895,-0.240579740818686
12.49,0.00555248292821214,-0.212886857267985
12.5,0.00925089860691589,-0.33427140648055
12.51,0.0146707722873445,-0.234101539386617
12.52,0.0222984421689529,-0.0525683822139268
12.53,0.0326621727848318,-0.214898165056451
12.54,0.046310469993079,-0.259433255212309
12.55,0.0637861456021331,-0.143456838873611
12.56,0.0855968834971573,-0.0233962166941026
12.57,0.112184441324366,-0.220843295298376
12.58,0.143895312706839,-0.0812386471082313
12.59,0.180955094135554,0.0155540627011026
12.6,0.223447078333163,0.180861605116994
12.61,0.271293575680797,0.0233352063871003
12.62,0.324237332412863,0.249197089868182
12.63,0.381821107677313,0.152749020316644
12.64,0.443366151094197,0.168634913566197
12.65,0.507954153172681,0.22718495707012
12.66,0.574420626946194,0.368974033387273
12.67,0.641368882017716,0.454116530816993
12.68,0.707211649737545,0.498255332595568
12.69,0.77024207912002,0.673665755379264
12.7,0.828728630823435,0.665542279093677
12.71,0.881021634465825,0.696644390016922
12.72,0.925655308716564,0.704012136181209
12.73,0.961429415927263,0.686814687088166
12.74,0.987459520145325,0.662317955787509
12.75,1.00319257955432,0.854440281547771
12.76,1.00839282770646,0.847196342322448
12.77,1.00310894217521,0.951720511160719
12.78,0.987635550085185,0.852996522038337
12.79,0.962479828876258,0.871024641013979
12.8,0.928338517353761,0.779108412787041
12.81,0.886084272679364,0.670862063906597
12.82,0.836755357076371,0.712951667748444
12.83,0.781540737003983,0.664558192017793
12.84,0.721754163600055,0.515034204204473
12.85,0.658794717483627,0.518030208284105
12.86,0.59409589064706,0.618584292478202
12.87,0.529068768513512,0.306069691404215
12.88,0.465046176687553,0.453104357473697
12.89,0.40323371639907,0.258318567148548
12.9,0.344671288722553,0.339497189507539
12.91,0.290206262070533,0.102017397145758
12.92,0.240477899186006,0.117475068946851
12.93,0.195912361717132,0.106163735075783
12.94,0.156728104978135,0.0361553836839159
12.95,0.122951852489099,0.067188577154035
12.96,0.0944447772373734,-0.0242426804639582
12.97,0.070936786088495,0.0654520976642482
12.98,0.0520644743948961,-0.0333330379048986
12.99,0.0374065419144685,-0.00304853345653088
13,0.0265104274382228,-0.160981238976763
13.01,0.0189062227893748,-0.123194394708424
13.02,0.0141081564317369,0.0150748428543775
13.03,0.0116087019060566,-0.0306303782271189
13.04,0.0108737850944759,-0.0796728583982589
13.05,0.0113480348911943,-0.0737456319967891
13.06,0.0124759503836865,-0.000225422969696944
13.07,0.0137390210290931,-0.0739476430126404
13.08,0.014702195666761,-0.0457581877176358
13.09,0.0150581049048616,-0.179737417007913
13.1,0.014656108265885,0.0968074393876964
13.11,0.0135063190947278,0.0183754742245089
13.12,0.0117554155340122,0.02530208283943
13.13,0.00963910444291821,-0.192451805687618
13.14,0.00742285421705997,-0.0405068488356576
13.15,0.00534569668303522,-0.0702314063516019
13.16,0.00358054021964496,-0.145984185602926
13.17,0.00221916019504722,0.0243758761326513
13.18,0.00128277559103613,0.0673985171747846
13.19,0.000752361350946163,-0.072691087159613
13.2,0.000608672072376036,-0.0434772367817702
13.21,0.000871335116333012,0.115477321280345
13.22,0.00162891962420664,-0.149222700905895
13.23,0.0030561508342142,0.0471744150489195
13.24,0.00541858914588496,-0.031671979523864
13.25,0.00906768988989457,-0.008673217384181
13.26,0.0144296685397798,-0.0395098688731185
13.27,0.0219904705375235,0.108119927969159
13.28,0.032277472343746,-0.0560463854361355
13.29,0.0458374462418462,0.128151127342083
13.3,0.063210418532553,0.184486818509987
13.31,0.0849001835236599,-0.0342198151929879
13.32,0.111343623476281,0.0368536000140223
13.33,0.142881677281246,0.209314984972393
13.34,0.179734215938296,0.125782861605794
13.35,0.22197935897778,0.192649739945301
13.36,0.269535749441081,0.263334730071593
13.37,0.322145168126474,0.327442439293338
13.38,0.379353523673523,0.471927917460749
13.39,0.440490843513267,0.431944519000718
13.4,0.504654585820549,0.554904768730292
13.41,0.570703848088996,0.67620534659325
13.42,0.637273203002198,0.56393566733372
13.43,0.702812894200429,0.700916489910625
13.44,0.765657059405944,0.891085895339112
13.45,0.824114837605392,0.85399897409175
13.46,0.876572811425252,0.737120740723214
13.47,0.921593446874659,0.919660101366572
13.48,0.957994456039793,1.09329200434302
13.49,0.984898412731788,1.02409740068645
13.5,1.00174916416408,1.04600097199578
13.51,1.00829931136953,1.0765425423046
13.52,1.00457884745429,1.14530767201294
13.53,0.990857244951661,1.03799235433535
13.54,0.967609479432089,1.09534286557668
13.55,0.935491662693228,1.07421787778662
13.56,0.89532608541558,0.90989070577329
13.57,0.84809067609544,0.942395391859244
13.58,0.794905714227645,0.854257943757476
13.59,0.737011531873378,0.875927121757028
13.6,0.675734184960836,0.663753668939448
13.61,0.612440196275895,0.847357045572539
13.62,0.548484871117172,0.771029853180451
13.63,0.485160276563202,0.535653681976389
13.64,0.423648531007406,0.491016261407912
13.65,0.364984173308305,0.416275535409559
13.66,0.310027122697197,0.426063231308086
13.67,0.259446079236526,0.349287145687547
13.68,0.213711620073725,0.355586717969871
13.69,0.173098525766591,0.158859674845691
13.7,0.137697342690362,0.289048222401865
13.71,0.10743509127242,0.250209340479153
13.72,0.082103963748631,0.0984199729595365
13.73,0.0613950340986786,0.230644633905218
13.74,0.0449322075669526,0.19927951751627
13.75,0.0323008699399772,0.166556794879414
13.76,0.0230666932973845,0.177432700806653
13.77,0.0167828743398401,0.205693941101221
13.78,0.0129879684063524,0.201502605714878
13.79,0.0112000848311794,0.140078692788706
13.8,0.0109150811576813,0.268936619259236
13.81,0.0116155863851735,0.177268252632189
13.82,0.0127941830282611,0.173041047597516
13.83,0.01398889717056,0.26317236115825
13.84,0.014824015047985,0.270271213480985
13.85,0.0150460047103004,0.137512538186696
13.86,0.0145442452213998,0.11618177943882
13.87,0.0133495698828937,0.140189898462484
13.88,0.0116093632622474,0.103169587781512
13.89,0.00954431281234916,0.0549679085359565
13.9,0.00739687909504886,0.222425982362143
13.91,0.00538356869581648,0.186180052733439
13.92,0.00366162703917881,0.249658968277797
13.93,0.00231642440711717,0.198927902956167
13.94,0.0013700899713555,0.232960628649464
13.95,0.000806687427404759,0.162054815333535
13.96,0.000605937553941305,0.126766965783517
13.97,0.00077688926345017,0.267995235500434
13.98,0.0013847668925748,0.269201124096187
13.99,0.00256745701251962,0.0727165918221486
14,0.00454141527867671,0.285450593820011
14.01,0.0075990611041675,0.0782941853914088
14.02,0.0121004710720426,0.222808942240823
14.03,0.0184615693634784,0.202992904908768
14.04,0.0271397488134005,0.23473272731245
14.05,0.0386167820577152,0.345828021618499
14.06,0.0533785866293895,0.174106177238203
14.07,0.0718919822352793,0.273388849840395
14.08,0.0945796211660753,0.523127368621291
14.09,0.121795122727879,0.229319297162331
14.1,0.153800528288829,0.330924190392297
14.11,0.190747336181743,0.4161324092549
14.12,0.232660906743361,0.478701274086877
14.13,0.279426664382448,0.468137245890762
14.14,0.33077605123249,0.542155205756813
14.15,0.386271084115744,0.706906904312813
14.16,0.445288535701004,0.665930454906305
14.17,0.507007490422881,0.76338611461411
14.18,0.570406215527115,0.837331292366072
14.19,0.63427485948663,0.905261444357226
14.2,0.697248829464042,0.976089664976313
14.21,0.757863950528906,1.00264583019688
14.22,0.814629598577461,0.999271849216749
14.23,0.86611136450835,1.10366467172724
14.24,0.911011922069039,1.07698565376749
14.25,0.948238630889817,1.19954364246998
14.26,0.976949165531799,1.19369010319574
14.27,0.996571362520093,1.23237038511845
14.28,1.00679908859935,1.16478347543971
14.29,1.00757062269516,1.23143507192407
14.3,0.999038515642383,1.15892210145668
14.31,0.981539598555298,1.19665330526611
14.32,0.95557110061227,1.24574791897996
14.33,0.921774791000249,1.1894425238924
14.34,0.880927090408497,1.20159264915798
14.35,0.833930458809271,1.12207936077225
14.36,0.781800750906094,1.04013880322109
14.37,0.725646589980638,1.0551100427222
14.38,0.666639446805276,1.0117471269606
14.39,0.605975985486004,0.743919541813426
14.4,0.544836376247344,0.866179235140354
14.41,0.484343097954071,0.796579571215335
14.42,0.425524235164939,0.750858099701434
14.43,0.369283874023734,0.546493543425522
14.44,0.316380613419576,0.758894398849946
14.45,0.26741405174928,0.309511057383455
14.46,0.222818680164003,0.472794745681392
14.47,0.182864793749444,0.441482694072969
14.48,0.147666394672887,0.384554710248809
14.49,0.117196102121984,0.425537250633483
14.5,0.0913064876267012,0.349340257782488
14.51,0.0697560711030472,0.255174969865368
14.52,0.0522368681254026,0.412207782398089
14.53,0.0383995083334269,0.261512557747219
14.54,0.0278721192286357,0.322763025695178
14.55,0.0202706215781672,0.212350040018367
14.56,0.0152005522675396,0.175126867564161
14.57,0.0122533013409646,0.20777311301697
14.58,0.0110017749483696,0.169664711751664
14.59,0.0110011355442753,0.296036775902254
14.6,0.0117990204324842,0.129149292363864
14.61,0.0129567201894635,0.175279655240326
14.62,0.01407902935327,0.255897028771019
14.63,0.0148470383240034,0.116234433983532
14.64,0.0150461658312075,0.212235358507253
14.65,0.0145819662031475,0.226670045252258
14.66,0.0134787374362524,0.356503363333653
14.67,0.011860041669599,0.225406980320041
14.68,0.00991475292740097,0.200968410038334
14.69,0.00785585287816765,0.186437333408754
14.7,0.00588086913506442,0.271975460219394
14.71,0.00414215998753294,0.207536985575793
14.72,0.0027324832490855,0.186771329408556
14.73,0.00168733578733679,0.205401387697872
14.74,0.00100159721781775,0.310811706526777
14.75,0.000655143062172914,0.34913360498407
14.76,0.000640967034099851,0.170662204284369
14.77,0.000990028612429635,0.222477696771749
14.78,0.00178902463886741,0.194033914447952
14.79,0.00318974519180289,0.368253103515389
14.8,0.00541077164775721,0.267394236089128
14.81,0.00873343882084032,0.0792152870163017
14.82,0.0134940776853414,0.18986632261127
14.83,0.0200738648765351,0.0458834485525254
14.84,0.0288866650550771,0.228767648296989
14.85,0.0403645998790524,0.302048987362077
14.86,0.0549410276703833,0.186758878055075
14.87,0.0730311487003015,0.171778554532737
14.88,0.0950112392967363,0.394754379484583
14.89,0.121198105355904,0.241202493296873
14.9,0.151830360843192,0.419484563009482
14.91,0.187052478981653,0.397029299975026
14.92,0.226901470821371,0.488016844250362
14.93,0.271295012752535,0.539878303109766
14.94,0.320019422477192,0.597302126044583
14.95,0.372716436583067,0.655363784021869
14.96,0.428869263515978,0.633905367295553
14.97,0.487790441072811,0.680540148331082
14.98,0.548615877437942,0.648764198930255
14.99,0.610310300781497,0.687593934463589
15,0.671688624470156,0.795197978419922
15.01,0.731455367112011,0.889680908511333
15.02,0.788260720546313,0.875808260019558
15.03,0.840768054612724,1.07125812880888
15.04,0.887724680602855,0.985431379401018
15.05,0.928026487115875,1.11391968108949
15.06,0.960768052001428,1.18637271273934
15.07,0.985272819984693,1.04395466314276
15.08,1.00110212027845,1.23344352761966
15.09,1.00804603062629,0.987107561213243
15.1,1.0061022246469,1.16941771140991
15.11,0.995450175303692,1.25849200044327
15.12,0.976427227473395,1.1601105621388
15.13,0.949510527376399,1.159065854208
15.14,0.915305505157855,1.00448946953982
15.15,0.874538610265656,1.02892956363047
15.16,0.828050177089975,1.0441216393978
15.17,0.776783084150385,0.795028076013131
15.18,0.721764149991451,0.923468695234587
15.19,0.664077408192788,0.669870941011912
15.2,0.604830720899969,0.680412260110843
15.21,0.545118887224794,0.867347569254413
15.22,0.485987048067738,0.636151061722722
15.23,0.4283977685494,0.52732282964507
15.24,0.373204047851409,0.554559276612493
15.25,0.321129206304095,0.401520255187851
15.26,0.272753627014239,0.419216764867831
15.27,0.228507939270292,0.294462942250369
15.28,0.188672357119854,0.0905633438707999
15.29,0.153382201886911,0.278251237267135
15.3,0.122639726262938,0.165551771469819
15.31,0.0963319250051051,0.131010628196738
15.32,0.0742530471933509,0.15184472693113
15.33,0.0561293186280819,0.237527553104335
15.34,0.0416424559372044,0.135965655401457
15.35,0.0304484284559565,0.165156274705496
15.36,0.0221888954514804,0.136544670713823
15.37,0.016494719539264,0.0853067290518758
15.38,0.0129834231735118,0.123999141783025
15.39,0.0112546302339123,0.0541463265553172
15.4,0.0108886213648393,-0.0384787046513165
15.41,0.0114526110387168,0.0864520687629022
15.42,0.0125172040172538,-0.125917283029609
15.43,0.01368224032493,-0.024830288164235
15.44,0.014607841154796,0.0468146236852531
15.45,0.0150440018061339,0.0357321526236681
15.46,0.014851396637007,0.0113437948320039
15.47,0.0140075020660121,0.119782757605435
15.48,0.0125953931069794,-0.0497241808755874
15.49,0.0107767410414922,-0.178508094286262
15.5,0.00875444569052897,0.0875505677597021
15.51,0.00673285459551825,0.0232514330183954
15.52,0.00488395144811807,0.00566272677828792
15.53,0.00332616776299828,-0.0219679406434025
15.54,0.00211915400882748,-0.130292188748905
15.55,0.00127394712841709,-0.075849497476614
15.56,0.000774603572969929,0.0370051118864999
15.57,0.000605395927408666,-0.00570663569181054
15.58,0.000777461785376939,-0.124005892851467
15.59,0.00135013811126117,0.034482316146535
15.6,0.00244445621869603,0.0471850106507407
15.61,0.00424857094449731,-0.0281366551175924
15.62,0.00701653276447714,-0.0193496081648901
15.63,0.0110624186738066,0.0953025820456418
15.64,0.0167514904484801,0.0164171111586599
15.65,0.0244891726312274,0.0867334010920217
15.66,0.0347078004189396,-0.00766171138005686
15.67,0.0478507315235712,0.124036277964593
15.68,0.0643537024480298,0.0127234301820589
15.69,0.0846240514609572,0.109074978759756
15.7,0.109019201210259,0.0290839315066124
15.71,0.137826135909845,-0.00406106929251697
15.72,0.171243257560092,0.192281270812657
15.73,0.209365036070481,0.33060291272172
15.74,0.252168687549638,0.1603158410631
15.75,0.299501311736976,0.347899623373946
15.76,0.351066012129704,0.259688742490101
15.77,0.406406713236732,0.404561069682647
15.78,0.464893425587153,0.306746919048828
15.79,0.52571191681809,0.465481484922074
15.8,0.587863241876574,0.441232969928972
15.81,0.650178590172564,0.453233340511867
15.82,0.711353065106399,0.671756783245694
15.83,0.76999857022839,0.803567710956176
15.84,0.824711771116422,0.6632424389226
15.85,0.874149321045174,0.701883081685598
15.86,0.917100347603543,0.726595057456064
15.87,0.95254634824638,0.808062983758131
15.88,0.979701202105823,0.922013516357341
15.89,0.99802830565914,0.940980952112925
15.9,1.00723667498371,0.925583026257287
15.91,1.007261862066,0.947896856394106
15.92,0.998239617802482,0.837578364093684
15.93,0.980479929740607,0.84051657206901
15.94,0.954446650802449,0.87989266743712
15.95,0.92074433289894,0.766153426342294
15.96,0.880110311651116,0.668194274394221
15.97,0.833407673506042,0.585313711696581
15.98,0.781614126198115,0.856669733458579
15.99,0.725802992651197,0.446231984802925
16,0.667114967696399,0.523051453610883
16.01,0.606721987907457,0.612271220288792
16.02,0.545786654320242,0.460833048858189
16.03,0.485421537206596,0.31590982859933
16.04,0.426652305731136,0.311934667046391
16.05,0.37038735495062,0.353129982369466
16.06,0.317395095322509,0.169872131823391
16.07,0.268288934292328,0.0574605132828418
16.08,0.223519533294534,0.171792902432088
16.09,0.183374084271413,0.162470924536401
16.1,0.147982710060317,-0.103716323812056
16.11,0.1173321418394,-0.000580922800516533
16.12,0.0912862201428791,-0.076225048515659
16.13,0.0696115247960608,-0.0545276855970336
16.14,0.0520049847569714,-0.0885067217481917
16.15,0.0381193203097467,-0.148511379693847
16.16,0.0275822592717922,-0.124654081626877
16.17,0.020006938376932,-0.266402756962552
16.18,0.0149935134681143,-0.289162256402968
16.19,0.0121250032493334,-0.124215354699383
16.2,0.0109627396396076,-0.17831575866414
16.21,0.0110475378866564,-0.197766730995216
16.22,0.0119113423405844,-0.322543401754739
16.23,0.0131008641836173,-0.234876955760411
16.24,0.0142105175932181,-0.174839769410722
16.25,0.0149181227429729,-0.2303840680658
16.26,0.0150147053503144,-0.186809152163916
16.27,0.0144201296578005,-0.165005085078472
16.28,0.0131793003153405,-0.209888101085595
16.29,0.0114384521470863,-0.168231071852374
16.3,0.00940620158150817,-0.225684790053333
16.31,0.00730799923644157,-0.235533721767985
16.32,0.00534420906196227,-0.234043922122414
16.33,0.00366081495735114,-0.165932078992049
16.34,0.00233817805105548,-0.154282577873382
16.35,0.00139850463261977,-0.0356287766734886
16.36,0.00082820076479153,-0.303218859170553
16.37,0.000608348684112801,-0.282844484547731
16.38,0.000745802226782134,-0.176008944413197
16.39,0.00129875121098637,-0.0973615145525464
16.4,0.00239327699638236,-0.130491294312919
16.41,0.0042303227148711,-0.265501344271629
16.42,0.00708464625962056,-0.280743459547938
16.43,0.0112981768998526,-0.0877690365596565
16.44,0.0172698131835569,-0.0952467485470019
16.45,0.0254426227114503,-0.194459311764274
16.46,0.0362883709944371,-0.0657952428509503
16.47,0.0502889040604824,-0.189517753729738
16.48,0.0679143213594022,-0.237668754783788
16.49,0.0895988257538889,-0.155538484107725
16.5,0.115716048739457,-0.119870144474121
16.51,0.146555941488854,-0.221034774678398
16.52,0.182304716012542,-0.0750388998761976
16.53,0.223028004938528,-0.0548365430461312
16.54,0.268655994042554,0.0628774512473346
16.55,0.318968547490738,0.0307301054069344
16.56,0.373578879823856,0.165804596497738
16.57,0.431916217407796,0.227902953778959
16.58,0.49321059834621,0.223430639758424
16.59,0.5564854602804,0.305100659855837
16.6,0.620564811655941,0.562758986153362
16.61,0.684100755781238,0.559240814849252
16.62,0.745623822051647,0.620974490987178
16.63,0.803613672698286,0.558952002054212
16.64,0.856582670482169,0.539857146473798
16.65,0.903161104023743,0.699122808281798
16.66,0.942171830928295,0.697590237216529
16.67,0.972684179383333,1.00950202022794
16.68,0.994041622492054,0.58949331684804
16.69,1.00586364259434,0.739646405627394
16.7,1.00802757943138,0.876787950206201
16.71,1.00063954682298,0.582922936360647
16.72,0.984003862923941,0.713545954962824
16.73,0.958598002143362,0.735834414241083
16.74,0.925055869932592,0.658240502222992
16.75,0.884157755058686,0.56066393655366
16.76,0.8368221104221,0.578430672748412
16.77,0.784093284080568,0.642950694737614
16.78,0.727120568942123,0.371463996453611
16.79,0.667126774050426,0.533005686530421
16.8,0.605367785047817,0.431713140759448
16.81,0.543087116257612,0.197950060995944
16.82,0.481470524052412,0.115831254479075
16.83,0.421605258047329,0.179460415428916
16.84,0.364446974761561,0.143160308104419
16.85,0.310795540142333,0.162265506516828
16.86,0.261279642882835,0.015659481302704
16.87,0.216349682195974,0.00822002446738716
16.88,0.176278629872695,0.0385619833697319
16.89,0.141170965316202,-0.00508122378261074
16.9,0.110979733123029,-0.0618452175815306
16.91,0.085530923436291,-0.126427623914893
16.92,0.0645528492907362,-0.141757049097696
16.93,0.0477065844547506,-0.0917385556933958
16.94,0.0346126510509777,-0.111689343995213
16.95,0.0248696840376625,-0.213308912214266
16.96,0.018062929209337,-0.184761655598965
16.97,0.013763669854095,-0.0815139737006808
16.98,0.0115239843010242,-0.100094454927323
16.99,0.0108733703127856,-0.2952363972575
17,0.0113237670950274,-0.0993086568918501
17.01,0.0123870865701198,-0.219485251786634
17.02,0.0136051262120028,-0.335772678931022
17.03,0.0145869944097957,-0.103920769185003
17.04,0.0150455484891208,-0.198490122652526
17.05,0.0148231651326759,-0.126451390019446
17.06,0.0138990054903508,-0.0479135573724264
17.07,0.0123743721669538,-0.116439335135493
17.08,0.0104384670773514,-0.231273329906568
17.09,0.00832208318342582,-0.21407609859577
17.1,0.00624988352850317,-0.28246462813383
17.11,0.00440201554608551,-0.269178062038187
17.12,0.00289294485690514,-0.163847802980331
17.13,0.0017705733178595,-0.226095298329232
17.14,0.0010334917675862,-0.148211280370596
17.15,0.000660174320339244,-0.132595136295727
17.16,0.000642094691778505,-0.168033644094756
17.17,0.00101335619144709,-0.226498036155311
17.18,0.00187187808771724,-0.311411823150735
17.19,0.00339035648810981,-0.178681291147156
17.2,0.0058179436835909,-0.266205345871457
17.21,0.0094750678741379,-0.125564528791604
17.22,0.0147438681665325,-0.10783067573707
17.23,0.0220557681604007,-0.134714310455352
17.24,0.0318765128199779,-0.23083797480653
17.25,0.0446882695304242,-0.192968096567905
17.26,0.0609685101819118,-0.153143272015087
17.27,0.0811662185588036,-0.0793598159478286
17.28,0.105676983184675,0.124413398412381
17.29,0.134819102478026,-0.106065520225123
17.3,0.168812526069815,-0.168381757752905
17.31,0.207761311330908,0.0360989657793986
17.32,0.251638787218855,0.0251159783887976
17.33,0.30027355746143,-0.0302273648208514
17.34,0.353334533160916,0.129391640518653
17.35,0.410314630591512,0.229166927995869
17.36,0.47051526217178,0.2338438922721
17.37,0.533036396200241,0.44458780728918
17.38,0.596778626164243,0.526510487548987
17.39,0.660463427281562,0.494448968519828
17.4,0.722675236692758,0.466994384953542
17.41,0.781924627106051,0.695206618313832
17.42,0.83672682074766,0.637013074939928
17.43,0.885685634190598,0.690921481845997
17.44,0.927571016475088,0.814106361802251
17.45,0.961379359804948,0.760895985360303
17.46,0.986369524541839,0.843427975217707
17.47,1.00207295564856,0.824075867806119
17.48,1.00828177808339,0.926415307586942
17.49,1.0050227502516,0.827160677113897
17.5,0.992526362157645,0.817980581340086
17.51,0.971198984798996,0.790335990669656
17.52,0.941602497501895,0.841727473650913
17.53,0.904441544294923,0.9040506401491
17.54,0.860554946845178,0.695048665104283
17.55,0.810905927658491,0.737166885469808
17.56,0.75656608095335,0.616115858613083
17.57,0.698690113460004,0.526891070940318
17.58,0.63848134309632,0.644313315079082
17.59,0.577150688507911,0.453428842259922
17.6,0.515873535021475,0.570644463051224
17.61,0.455749065232519,0.329200195427439
17.62,0.397765614044774,0.382053323271857
17.63,0.342773977919999,0.366688140087144
17.64,0.291469107445453,0.401128771286136
17.65,0.24437975681066,0.119659007685191
17.66,0.201865559203549,0.153101142110652
17.67,0.164121340565914,0.187487014942872
17.68,0.131188749921858,0.0429415769309258
17.69,0.102975006654127,0.105845084788707
17.7,0.0792775891272153,0.00351147882904083
17.71,0.0598122800273289,-0.0687567847750927
17.72,0.0442407395563259,-0.169215607616682
17.73,0.0321933783196722,0.0423078286016714
17.74,0.0232841977803313,-0.0316932459839338
17.75,0.0171164363003583,0.130358875370698
17.76,0.0132807465127473,-0.0967755004842322
17.77,0.0113502970724503,-0.0450283818412698
17.78,0.010878643852013,0.0616139284809367
17.79,0.0114057782225834,-0.0198745628155022
17.8,0.012475366280118,0.0445741622266233
17.81,0.0136624629688896,0.118394142580725
17.82,0.0146070581661706,0.188716917858155
17.83,0.0150459798950475,0.0225772063934081
17.84,0.0148349491546172,-0.0453374371650003
17.85,0.0139543161937265,-0.0624859572253915
17.86,0.0124957884981152,-0.0174462012498105
17.87,0.0106322013088502,-0.00625887193694597
17.88,0.00857668074917936,-0.067627641322015
17.89,0.00654014387009876,0.078480894767342
17.9,0.00469624698724441,0.146162441748122
17.91,0.00316066982056252,-0.00131673294391165
17.92,0.00198776320972593,-0.0468263917835442
17.93,0.00118329202008906,-0.0628964922979554
17.94,0.00072850937034094,0.103584851328359
17.95,0.000608983503593755,0.047779356666493
17.96,0.000841738486169883,-0.103502258928986
17.97,0.00149600544038338,0.0430266133035184
17.98,0.00270540893834371,0.0575395134311827
17.99,0.00467180839810656,-0.00465628485330703
18,0.00766256133557041,-0.0285147094455708
18.01,0.0120033892309876,0.0406373765452158
18.02,0.0180684928150213,0.0300868376455329
18.03,0.0262685964476678,0.0438401455742832
18.04,0.0370367929094502,-0.0723787076150015
18.05,0.0508118228685469,0.116981622690768
18.06,0.0680188315621175,0.225305582553113
18.07,0.089048431220998,0.266208611751513
18.08,0.114235598254105,0.3680784061966
18.09,0.143840118799886,0.256184556635764
18.1,0.178029779330466,0.18819993358581
18.11,0.216866444308044,0.354575480211725
18.12,0.260294034183515,0.448975855752379
18.13,0.308126791066543,0.562894720035545
18.14,0.360036534632978,0.531917837631313
18.15,0.415538953360975,0.639092520283619
18.16,0.473980993486683,0.622300651170425
18.17,0.534533394045194,0.548589707488625
18.18,0.596193545776518,0.646588294666241
18.19,0.657803483341352,0.931092325991752
18.2,0.718085758270999,0.899744709430872
18.21,0.775696552869063,0.850588922908336
18.22,0.829291541150694,0.904097935297932
18.23,0.877596778093105,0.93813128180487
18.24,0.919475289278764,1.06844795093761
18.25,0.953980589166111,1.07395061172322
18.26,0.980390998265093,1.04787076184516
18.27,0.998222658377658,1.24100243902015
18.28,1.00722345331035,1.15714737780806
18.29,1.0073534575172,1.21918499150172
18.3,0.998759180785267,1.12229665986693
18.31,0.981748433864244,1.15239490888959
18.32,0.95677042105509,1.19878101499351
18.33,0.924402488827059,1.14043684559856
18.34,0.885341863450472,1.12523755869826
18.35,0.840398617151648,0.861446716609994
18.36,0.790485536327665,0.974393758320797
18.37,0.736601523417808,0.89350970108858
18.38,0.679807165425571,0.802532097614305
18.39,0.621193393325086,0.753533149209949
18.4,0.561845988555264,0.875523492221149
18.41,0.502809569957706,0.719255035487132
18.42,0.445054511444375,0.617840360892294
18.43,0.389449266897146,0.65124215947552
18.44,0.336739309579458,0.482051194091788
18.45,0.287532832325311,0.489837171265073
18.46,0.242292815291502,0.551446263293858
18.47,0.201335068330327,0.370300483150076
18.48,0.164832142882525,0.298609132460526
18.49,0.132823199293681,0.288765323842875
18.5,0.105229684527513,0.223029407781889
18.51,0.0818759212761799,0.305971645082931
18.52,0.0625126241626258,0.294604645532864
18.53,0.0468403685978798,0.3230982474425
18.54,0.0345296384778154,0.388376015122047
18.55,0.0252346241834258,0.349220523212204
18.56,0.0185994714319734,0.131923576599422
18.57,0.0142578550192267,0.38935405421175
18.58,0.0118289298488063,0.239877629237162
18.59,0.0109141561914269,0.198584532991779
18.6,0.0110996261792647,0.379810101990443
18.61,0.0119671340061321,0.268148815284031
18.62,0.0131146190614413,0.375022316816137
18.63,0.0141834851178103,0.235674619745514
18.64,0.0148875988970233,0.182859318617493
18.65,0.0150373671712759,0.0856611112501407
18.66,0.0145526987375378,0.334001534345451
18.67,0.0134608595082819,0.173068646193183
18.68,0.0118786649163707,0.313552799135285
18.69,0.00998218139992646,0.252805593537378
18.7,0.00797008895809427,0.28021878056406
18.71,0.00602827029188229,0.342990530620979
18.72,0.00430268399383429,0.202240590126517
18.73,0.00288535503823786,0.203812794557493
18.74,0.00181506004154124,0.222165982820832
18.75,0.00109093396332508,0.325806643254578
18.76,0.000694672240414032,0.20354920522475
18.77,0.00061583188324774,0.228316363197538
18.78,0.000875070419554819,0.307180158459547
18.79,0.00154167160550256,0.307251845286961
18.8,0.00274375706022486,0.310663422011775
18.81,0.00467147266764128,0.253489314169854
18.82,0.00757463752709416,0.31414885155845
18.83,0.0117566473203339,0.28082581495268
18.84,0.0175659814614408,0.213708003202155
18.85,0.0253858723616601,0.417034207919948
18.86,0.0356220187001835,0.134361818488516
18.87,0.0486879983298776,0.364546702918454
18.88,0.0649883415311946,0.340926519382064
18.89,0.0848998732294459,0.335667672534689
18.9,0.108752563301457,0.309079415977869
18.91,0.136811374404662,0.365453722607017
18.92,0.169260272019151,0.563396355814221
18.93,0.206188736631122,0.448261515066488
18.94,0.247580127551031,0.466756436373878
18.95,0.293300562117162,0.473021604780661
18.96,0.343087007629702,0.553437742980249
18.97,0.396534208024883,0.639747064331294
18.98,0.453081704121219,0.594331667070295
18.99,0.512004045776181,0.853151332300928
19,0.572408646946254,0.829782287181016
19.01,0.633245965564688,0.999763459486991
19.02,0.693335457846403,1.02160683469938
19.03,0.751408169339635,1.11326873100494
19.04,0.806163452991931,0.947626844458019
19.05,0.856334034201709,1.15061407965828
19.06,0.900751414379155,1.11924984357024
19.07,0.938403115148972,1.18158253769415
19.08,0.968474737296056,1.16688046920571
19.09,0.990372901251559,1.25333442806562
19.1,1.00372903495047,1.2563150022069
19.11,1.00838763304588,1.08319177831561
19.12,1.004385065026,1.3162201642947
19.13,0.991925668234656,1.24711748702779
19.14,0.971360677439435,1.13560939967677
19.15,0.943173006619508,1.09616599454879
19.16,0.907967868153835,1.09291898428457
19.17,0.866466630734595,0.978964146526424
19.18,0.819499909690226,1.06868140464631
19.19,0.767995957640656,1.12527007787255
19.2,0.712961798346106,0.964360022622913
19.21,0.655456654066933,0.932432736666319
19.22,0.596559321652693,0.711497664196112
19.23,0.537332611405882,0.646537907831983
19.24,0.478788428874154,0.638117266619981
19.25,0.421856587102405,0.709243622536474
19.26,0.367359340598855,0.524914700805841
19.27,0.315992436816379,0.587566288566568
19.28,0.268312627473611,0.476226699021853
19.29,0.224731278173921,0.479318260704331
19.3,0.185513871400993,0.324722617945155
19.31,0.150785494266161,0.295603238423707
19.32,0.120542449626755,0.33130328923674
19.33,0.0946696645785106,0.295381221390947
19.34,0.0729625995810052,0.145545817318031
19.35,0.055151188262013,0.312031552804366
19.36,0.0409224618877555,0.097051491625855
19.37,0.0299384302670138,0.206974965800421
19.38,0.0218467755545495,0.234622844767693
19.39,0.0162838625215981,0.166560170714132
19.4,0.0128719768231089,0.105032285793818
19.41,0.0112148081600846,0.18176840301924
19.42,0.0108962242013785,0.202475382876341
19.43,0.0114868324061005,0.135888558859879
19.44,0.0125606831400479,0.100186450550923
19.45,0.0137212521131937,0.112197816406461
19.46,0.0146324875470268,0.16420102693832
19.47,0.0150482801986989,0.168451673023288
19.48,0.0148330576357454,0.315735168945266
19.49,0.0139676540871581,0.0961504143252012
19.5,0.0125378557924801,0.225725623153366
19.51,0.0107071905940876,0.157629246977829
19.52,0.00867943443120532,0.194017130719492
19.53,0.00665882378978874,0.129036088231018
19.54,0.00481638446825094,0.242028321260108
19.55,0.00326903863420811,0.037496838143157
19.56,0.00207480340786202,0.182317872891117
19.57,0.00124346083130203,0.168684010139681
19.58,0.000758686881446471,0.247974677460254
19.59,0.000605653407661287,0.142756518988237
19.6,0.000797930881052113,0.197964598955649
19.61,0.00139890719573277,0.188109220432675
19.62,0.00253522517937505,0.102792875450345
19.63,0.00440206857697248,0.146953746120979
19.64,0.00726175988414661,0.143038272925505
19.65,0.0114377090147209,0.244657751145345
19.66,0.0173053585645786,0.177252846818742
19.67,0.0252808589635738,0.186470018552293
19.68,0.035807360157432,0.35834127109538
19.69,0.0493384851971856,0.214767143258955
19.7,0.0663188988174375,0.224495960306825
19.71,0.0871626840053827,0.255904953019146
19.72,0.112231031353749,0.359287038299675
19.73,0.141811052038347,0.338924170323934
19.74,0.176097089096111,0.32032449820186
19.75,0.215174834191816,0.280387184623888
19.76,0.25900732202572,0.398574353596389
19.77,0.307421110143491,0.426637739240504
19.78,0.360091194108807,0.317956272536489
19.79,0.416524626765174,0.39486296184949
19.8,0.476045072296362,0.430948277860833
19.81,0.53778285313191,0.746212084628378
19.82,0.600676468246016,0.742207539406303
19.83,0.663491268112918,0.564297287049893
19.84,0.724858659891796,0.847825071436855
19.85,0.783335265570358,0.870790783475834
19.86,0.837476872313035,0.896054343395775
19.87,0.885918139510627,0.902148916763481
19.88,0.92744710063321,0.898417370837494
19.89,0.96106422734258,1.09925266103613
19.9,0.986019115182202,1.00571521717058
19.91,1.00182280761499,1.05375239588162
19.92,1.00823897070262,1.11434435114077
19.93,1.00526106650854,1.10385707363749
19.94,0.993084270533696,1.01403365204522
19.95,0.972079824373261,0.97786942252893
19.96,0.942776345812034,1.00917757574637
19.97,0.905848512886225,0.853829452370094
19.98,0.862109894821657,0.925434225597642
19.99,0.81250466001566,0.861799002998306
20,0.758092960348382,0.81013087554201
20.01,0.700026727614501,0.706354185940334
20.02,0.639515569830051,0.526662348491765
20.03,0.577785318976352,0.438934015196344
20.04,0.516033622330894,0.430929358522909
20.05,0.455387343095135,0.499446629665027
20.06,0.396865597504913,0.396030564757181
20.07,0.341350622431535,0.290511155067406
20.08,0.289567109282193,0.231442729651353
20.09,0.24206973176453,0.28717295746502
20.1,0.199238481813887,0.0678933571200279
20.11,0.161281798216292,0.215202831517363
20.12,0.128247746753915,0.154804244548724
20.13,0.100043157875314,0.0175986650101235
20.14,0.0764594647296223,0.0523502841394596
20.15,0.0572023186858904,0.108914247295893
20.16,0.041920601348475,0.126814749100449
20.17,0.0302300186517556,0.122730047825969
20.18,0.0217275939616195,0.0213619120095893
20.19,0.0159960295624517,-0.0346406035767822
20.2,0.0126003666550598,0.0121398423864849
20.21,0.0110824570406877,-0.0498807904563048
20.22,0.0109602281463405,-0.112994594946046
20.23,0.0117377832660901,0.0321501285843047
20.24,0.0129290497453313,0.0179934113004182
20.25,0.0140928852289141,0.0610852880678616
20.26,0.0148728316380975,0.090940417851207
20.27,0.0150317400980527,0.0721648985182752
20.28,0.0144714611216306,0.0136545031590196
20.29,0.0132309388674688,-0.0569821335188794
20.3,0.0114615214573338,-0.0664595291335732
20.31,0.00938443173382156,-0.0975711563849231
20.32,0.00724020212146372,-0.132465285944218
20.33,0.00524193426229753,-0.106465365243906
20.34,0.00354289912388176,-0.0311138709492234
20.35,0.00222476865242145,-0.0540127477606418
20.36,0.00130710037864288,-0.185388382313683
20.37,0.000773399720871463,0.00314451689408832
20.38,0.000605717186323881,0.00724386542869164
20.39,0.00081907437400859,0.0196339445826666
20.4,0.00148884333446004,-0.199388263494767
20.41,0.00276750450746793,-0.13641490571902
20.42,0.00489060311949719,-0.137122978940681
20.43,0.0081740394639508,-0.140264049927793
20.44,0.0130055185580568,-0.147591642655493
20.45,0.0198322612230785,-0.143444089930783
20.46,0.029145717331634,-0.17000609432621
20.47,0.0414629451225544,-0.128078530096249
20.48,0.0573041513006295,-0.096758989409417
20.49,0.0771666737577576,-0.0378018146431194
20.5,0.101496919366615,0.016552506166124
20.51,0.130662657458454,0.0709868474655317
20.52,0.164927981247642,-0.0383270037923876
20.53,0.204432061875428,0.0657892277156735
20.54,0.24917103932936,0.291150306218352
20.55,0.298980963515819,0.114352371486654
20.56,0.353519562966944,0.262300583828374
20.57,0.41224624272999,0.203179869696827
20.58,0.474402766995454,0.403717322454115
20.59,0.539000460430108,0.424040484060574
20.6,0.604821959907191,0.370107831143165
20.61,0.670445262293438,0.588577937426158
20.62,0.734294530100252,0.657877034218643
20.63,0.794716430690828,0.69630176671772
20.64,0.850074298778954,0.457059487124829
20.65,0.898847218586779,0.736287776122474
20.66,0.939719053173018,0.88478034756879
20.67,0.97164437654064,0.778979677744094
20.68,0.993883732382834,0.759876857166179
20.69,1.00600798224152,0.809947928092633
20.7,1.00787840566724,0.63119266683561
20.71,0.999613543409602,0.720216622662878
20.72,0.981554330650159,0.783986159947681
20.73,0.954235983959569,0.828256234973783
20.74,0.918369753199149,0.740351417359831
20.75,0.874832084244386,0.729008521097334
20.76,0.824654920379471,0.542849180096217
20.77,0.769009958099455,0.686565620776442
20.78,0.70918166328564,0.601083910720179
20.79,0.646527687158647,0.490578962494027
20.8,0.582429388106308,0.361315680448068
20.81,0.518237981417776,0.377973601707133
20.82,0.455222610055432,0.194552718462174
20.83,0.394525479830612,0.111373544099104
20.84,0.33712699555164,-0.0558467041098527
20.85,0.283821696711247,0.0828464914671529
20.86,0.235204563312543,-0.167953057644635
20.87,0.191667136612107,-0.0300917891709541
20.88,0.153403395159603,-0.032726718853134
20.89,0.120425605052487,-0.03942844394756
20.9,0.0925897225252392,-0.0502251117666677
20.91,0.0696282299602745,-0.107208589510604
20.92,0.0511861104877506,-0.245091944634969
20.93,0.0368540845538341,-0.12080846710806
20.94,0.0261933118556653,-0.19903408047062
20.95,0.0187480061771124,-0.362037150781062
20.96,0.0140464014732966,-0.22789546476639
20.97,0.0115949456776148,-0.365201029161014
20.98,0.0108737526922737,-0.30871995907588
20.99,0.0113417464545629,-0.274665553856699
21,0.0124570406401392,-0.272056240427046
21.01,0.0137126242127191,-0.150741390158309
21.02,0.0146811688810392,-0.230171657448335
21.03,0.0150580116562387,-0.300493788663322
21.04,0.0146899834872648,-0.27751816297823
21.05,0.0135805108080108,-0.274807212092582
21.06,0.0118675950797456,-0.216268579654214
21.07,0.00977890294718065,-0.191020087567672
21.08,0.0075747466091939,-0.270798441594333
21.09,0.00549303302975399,-0.267050992647475
21.1,0.00370928903583854,-0.200868332372167
21.11,0.00232009386190399,-0.313845311463767
21.12,0.00135140849849646,-0.25865988221725
21.13,0.000786706080093903,-0.258276251346844
21.14,0.000605520198517748,-0.308713648847785
21.15,0.000822084348812307,-0.300465524570744
21.16,0.00151590093343954,-0.271933886912492
21.17,0.00285006272954724,-0.316867725502259
21.18,0.00507722210550535,-0.251972614102004
21.19,0.00853581625817942,-0.343174930660208
21.2,0.0136398808349322,-0.206109793046434
21.21,0.0208648437620167,-0.26658560493414
21.22,0.0307300776386419,-0.155335079936254
21.23,0.0437778121612628,-0.172118976470788
21.24,0.0605479469953126,-0.230394721246245
21.25,0.0815493135316969,-0.196148536430634
21.26,0.107229319232208,-0.0937926195101749
21.27,0.137944738239565,-0.0528205014001919
21.28,0.173936037137022,-0.0373109975697482
21.29,0.215306063338034,-0.00754847898754858
21.3,0.26200191270418,-0.129302973606955
21.31,0.313797468302603,0.0749071486008865
21.32,0.370274442973597,0.00877770512453847
21.33,0.430802052295476,0.189308012047392
21.34,0.494519030662087,0.194579203568149
21.35,0.560325137180098,0.305362317409201
21.36,0.62689090003861,0.286559628215039
21.37,0.692692918630967,0.434264707556696
21.38,0.75607744591009,0.63304502252001
21.39,0.815348323289494,0.717512369009858
21.4,0.868868685724864,0.426713454849432
21.41,0.91516146094377,0.540583198573843
21.42,0.952993187058905,0.597970126700481
21.43,0.981429422365993,0.638895019940986
21.44,0.999856919777866,0.926724207016874
21.45,1.0079755999239,0.850773359650708
21.46,1.00576969058754,0.759616758454032
21.47,0.993470303460978,0.835714479728337
21.48,0.971520540456257,0.91730270151128
21.49,0.940549742332681,0.757587965511166
21.5,0.901357571962687,0.810712866821638
21.51,0.854903464009242,0.531701514006455
21.52,0.802294292262343,0.485876675445528
21.53,0.744763558219122,0.601501714890311
21.54,0.683638436143607,0.527698534571011
21.55,0.620295193484818,0.464083859536215
21.56,0.556107179216911,0.370653371611625
21.57,0.492391507280919,0.231936317397728
21.58,0.430360385706737,0.285152765876156
21.59,0.371081266712838,0.29935339083608
21.6,0.315447670663141,0.196808067167478
21.61,0.264160718771518,-0.0624611017418603
21.62,0.217720667267149,0.041294950762779
21.63,0.176427950688331,-0.035186425084495
21.64,0.140393745634351,-0.0634019391072803
21.65,0.10956004846221,-0.113914410933066
21.66,0.0837282410023602,-0.224491796147953
21.67,0.0625932527722023,-0.115912316476666
21.68,0.0457784932976121,-0.0490941934626678
21.69,0.0328657843157205,-0.0371838391628661
21.7,0.0234153968358243,-0.137090411602994
21.71,0.0169741294213731,-0.238719030199825
21.72,0.0130734158368505,-0.228205699657107
21.73,0.0112233136140581,-0.230141740175113
21.74,0.0109103413098087,-0.131048087729564
21.75,0.0116064341944687,-0.195220655737756
21.76,0.0127926947803859,0.0594602842088722
21.77,0.0139961599737085,-0.190805039017537
21.78,0.0148323282162271,-0.154291308472143
21.79,0.0150426794110687,-0.180070573097466
21.8,0.014516279951528,-0.213022654577438
21.81,0.0132880587745467,-0.0925711339515826
21.82,0.0115124578181241,-0.201855883521105
21.83,0.0094179540484498,-0.159019884740185
21.84,0.00725322171363601,-0.181357404380203
21.85,0.00523777997960379,-0.384501378134796
21.86,0.00352828196331595,-0.105228224230324
21.87,0.00220684205907127,-0.143342370960202
21.88,0.00129163400549532,-0.222462067797616
21.89,0.000764424220861836,-0.042945394461285
21.9,0.000606355949415799,-0.250433061055108
21.91,0.000832882328698467,-0.288631800040031
21.92,0.00152090605126088,-0.197854728261063
21.93,0.00282474684056082,-0.233509666559995
21.94,0.00498106297950397,-0.070570779919097
21.95,0.00830512985206553,-0.120655744199818
21.96,0.0131814529938072,-0.149347431930096
21.97,0.0200508671476875,-0.109186788681066
21.98,0.029394876702406,-0.1737102150226
21.99,0.0417169442399168,-0.0677774523476467
22,0.0575203054193675,-0.0482721105970727
22.01,0.0772826729150623,-0.0464406986974919
22.02,0.101429356905191,-0.013725172931906
22.03,0.130307120867336,-0.070196952817968
22.04,0.16416093964658,0.130230931405975
22.05,0.203114661490981,-0.0213758589310036
22.06,0.247154900742545,0.322957055401297
22.07,0.296116174983159,0.326727543976872
22.08,0.349665187541029,0.2951076343733
22.09,0.407283624932132,0.206181705890554
22.1,0.468251563290379,0.41261869469442
22.11,0.531636569959967,0.312092785186293
22.12,0.596295538641871,0.491461793414296
22.13,0.660896097875141,0.644187546193465
22.14,0.723961653400805,0.714520223473662
22.15,0.783939267987168,0.713183066553878
22.16,0.839283985598416,0.750147509406018
22.17,0.888548615862161,0.842873198212275
22.18,0.930465955020616,0.739700071819701
22.19,0.964011713637943,0.873838488525068
22.2,0.988440765063297,1.07672864569105
22.21,1.00329544370719,0.810904142514087
22.22,1.00839066392251,1.08875738662257
22.23,1.00378481536384,0.999461784944007
22.24,0.989746596042102,0.91773919752236
22.25,0.966726061765204,1.10597140052504
22.26,0.93533409608655,0.8957695631115
22.27,0.896329777380518,1.01493363445151
22.28,0.850611355233245,0.823098243182525
22.29,0.799204881777902,0.817415751546581
22.3,0.743245279977029,0.674673343382254
22.31,0.683947219937655,0.590500022780699
22.32,0.622566494933277,0.44679951212124
22.33,0.560355414229859,0.498307266284412
22.34,0.498517185770735,0.547858820992033
22.35,0.438164103235984,0.344613758194919
22.36,0.380282967872674,0.285605621883813
22.37,0.325709343160559,0.29213229104176
22.38,0.275110750152816,0.292832315764794
22.39,0.228978226137963,0.19785547676551
22.4,0.187625760105749,0.296513355956096
22.41,0.151197535448299,0.189956887046055
22.42,0.119683045995592,0.135596063233308
22.43,0.0929395722573151,0.0269707632900045
22.44,0.0707201980287303,0.0215492698845284
22.45,0.0527039707667741,0.118686160499763
22.46,0.0385237126368759,0.0444791848763313
22.47,0.0277870830263005,0.152247821072996
22.48,0.0200880995684417,-0.0712234574199828
22.49,0.0150091665904882,0.0846172517103668
22.5,0.0121168903177513,0.0163375089626921
22.51,0.010957434984732,0.177612062172095
22.52,0.0110578752334194,0.0981993123559575
22.53,0.0119384484976338,-0.0137326113264987
22.54,0.013137102893142,-0.0318068698921018
22.55,0.0142433020596837,0.0956621058805903
22.56,0.0149341335533195,0.0567609969432212
22.57,0.0150037407220555,0.0780108860686557
22.58,0.0143777659600855,0.0741449193276113
22.59,0.0131077962215751,0.141832455634413
22.6,0.0113458078282612,0.0049660550457437
22.61,0.00930381106665064,0.36985176485426
22.62,0.00720771504516426,0.116861696816098
22.63,0.00525573761542978,0.0517092085591869
22.64,0.00359015436563952,0.0845904467686538
22.65,0.00228738787347935,0.141441105619647
22.66,0.00136662452738254,0.15106671743216
22.67,0.000812779417356544,-0.0390457364109
22.68,0.00060691160771225,-0.059409611476825
22.69,0.000756686207924628,0.10196274411484
22.7,0.00132098663492613,0.179767322523777
22.71,0.00242548713756345,0.130309161412748
22.72,0.00426882602880315,0.203955631586657
22.73,0.00712104514704432,0.160058754856112
22.74,0.0113167119672808,0.167941528858753
22.75,0.0172447158687945,0.27834828847671
22.76,0.0253356724281477,0.070022665286732
22.77,0.0360468816892062,0.105345827164392
22.78,0.0498444085289863,0.216440050850868
22.79,0.0671822403564001,0.225907750516219
22.8,0.0884793610006776,0.0547760521027744
22.81,0.114096423095422,0.301228143730841
22.82,0.144313973964641,0.188040743448957
22.83,0.179313638187931,0.230969727515524
22.84,0.219162453195517,0.509784465399344
22.85,0.26379923936781,0.511804983092386
22.86,0.313021162178532,0.411039896339376
22.87,0.36646904710492,0.660338870427228
22.88,0.423611638839542,0.544405584646826
22.89,0.483731408879092,0.731795541898439
22.9,0.545916827994251,0.824397382921977
22.91,0.60906721824543,0.886429255483553
22.92,0.671915625764988,0.945675936418919
22.93,0.733072436941038,0.885946411810486
22.94,0.791088240431306,0.925649440477031
22.95,0.844529852001933,1.12554932527539
22.96,0.892059847248838,1.06939799560164
22.97,0.932508550262636,1.06332532792697
22.98,0.964928741854741,1.0706410309751
22.99,0.988627087072403,1.28272974984868
23,1.00317139027958,1.25602082645418
23.01,1.00837779494817,1.32114291945596
23.02,1.00428553576585,1.15127078474079
23.03,0.991127914580192,1.21056984271347
23.04,0.969306690600717,1.08313071522942
23.05,0.939373727973048,1.14905770334732
23.06,0.902019746351329,1.03911128559276
23.07,0.858066696394925,1.09592941625281
23.08,0.808458620964798,1.01412101770093
23.09,0.754246215736637,1.08045074914856
23.1,0.696562321848231,0.934339589910557
23.11,0.636588405342541,0.818471599900584
23.12,0.575514676854951,0.652258720528552
23.13,0.514498067375429,0.695955526865693
23.14,0.45462246741025,0.62709716711595
23.15,0.396864661904967,0.70969651011915
23.16,0.342067844815503,0.601249627992243
23.17,0.290923169218753,0.468043249047855
23.18,0.243958976165883,0.48784579873723
23.19,0.201537254013795,0.439388622996789
23.2,0.163857220744323,0.418745518168442
23.21,0.13096618370842,0.337086140186196
23.22,0.102777552916123,0.428832450677417
23.23,0.0790949034750155,0.4164043340331
23.24,0.0596395531381638,0.19979603800906
23.25,0.0440778351376931,0.35876188557915
23.26,0.0320437951612929,0.208435309026687
23.27,0.023153899269636,0.278166199036401
23.28,0.0170125121007472,0.335417295481061
23.29,0.0132098473987435,0.29209121245634
23.3,0.0113168530633386,0.250966210336259
23.31,0.0108830344342991,0.259827990774267
23.32,0.0114428157619989,0.433636222211509
23.33,0.0125335852058727,0.37043807192756
23.34,0.0137246822279617,0.258321312108353
23.35,0.0146524528644296,0.23349683336596
23.36,0.0150534913166896,0.407592215723022
23.37,0.0147873978033692,0.267836262167733
23.38,0.0138422297309797,0.292523716740165
23.39,0.0123198744699113,0.364085516258202
23.4,0.0104036635312836,0.208866357374804
23.41,0.00831515520001714,0.221461371469724
23.42,0.00626975049620344,0.224100095177931
23.43,0.00444088397658505,0.266912715663499
23.44,0.00293999785318631,0.0586997922897708
23.45,0.0018152204151778,0.217717917661319
23.46,0.00106697699657711,0.307223009869613
23.47,0.00067504216127767,0.275376320227278
23.48,0.000629751140341952,0.278566204851207
23.49,0.000960479256926318,0.123977307145328
23.5,0.00175660051900778,0.269077451834211
23.51,0.00317899440757399,0.243983416100052
23.52,0.00546272809724977,0.257011712066711
23.53,0.00891303409259483,0.33014796093862
23.54,0.0138968966289267,0.379397373956509
23.55,0.0208317675614024,0.250117380989043
23.56,0.030171813024314,0.231568868882423
23.57,0.042391327849011,0.271465879594917
23.58,0.0579649457362439,0.368459543844694
23.59,0.0773449783669886,0.316007338564256
23.6,0.100937201641848,0.315236635925384
23.61,0.129077073279731,0.372098170479317
23.62,0.162008255670589,0.517001510819055
23.63,0.199864360512353,0.372304385474707
23.64,0.242653415303871,0.46325172331622
23.65,0.290243380492409,0.450560139096187
23.66,0.342346835613495,0.765501579345476
23.67,0.398504086956113,0.603941893993609
23.68,0.458066247288287,0.773014442690727
23.69,0.520182542751913,0.764814527990009
23.7,0.583798114482422,0.810456361843619
23.71,0.647668868914152,0.858469987477032
23.72,0.710397948621059,0.884834870641867
23.73,0.770494371270444,1.11549831544985
23.74,0.826449319516589,1.11310738496796
23.75,0.87682094919915,1.11475559132541
23.76,0.920315903625027,1.06698260663099
23.77,0.955855938697852,1.14997340929367
23.78,0.982621250265671,1.29062563990607
23.79,1.000067375289,1.15094521919059
23.8,1.00791835821877,1.19124563039741
23.81,1.00614351418795,1.29646848262943
23.82,0.994927271251409,1.25165841310153
23.83,0.974640764169883,1.15136542789347
23.84,0.945820583653236,1.30122366078583
23.85,0.909155623780545,1.03551004016922
23.86,0.865478880692663,1.19872840704064
23.87,0.815758649102724,1.09922532861222
23.88,0.761083465786614,0.809906442586527
23.89,0.702637139074922,0.9431334210972
23.9,0.641663364039649,0.918841805605515
23.91,0.579422538477585,0.727357157727062
23.92,0.51714542227308,0.725693464718808
23.93,0.455988718656763,0.533600888059255
23.94,0.396996659366034,0.529937514585161
23.95,0.341070918236027,0.555571815942351
23.96,0.28894949862136,0.512178540965037
23.97,0.241194263440821,0.434771310348073
23.98,0.198186655520041,0.33359999845134
23.99,0.160131548680757,0.40286472225745
24,0.127069452406724,0.426320510757537
24.01,0.0988969041362879,0.241666655346464
24.02,0.0753936460061912,0.268500272963692
24.03,0.0562534459692083,0.200066848028738
24.04,0.041113951387345,0.218619384079955
24.05,0.0295806099770617,0.224061069561028
24.06,0.0212409911415978,0.192297733236615
24.07,0.0156686903447239,0.164090409108429
24.08,0.0124196021775087,0.149063077889389
24.09,0.0110264415336666,0.18559827443743
24.1,0.0109987106045011,0.164263112482439
24.11,0.0118340974115083,0.135041752531647
24.12,0.0130436669805592,0.207405777001761
24.13,0.0141882070728475,0.208037802426842
24.14,0.0149183671375944,0.187436010687909
24.15,0.0150084781831683,0.083137757902229
24.16,0.0143742838606132,0.200074669571406
24.17,0.01306835551377,0.197894265643509
24.18,0.0112527131074296,0.136592031529063
24.19,0.00915435176298331,0.198635256694907
24.2,0.00701402329315794,0.250525842405164
24.21,0.00504028548388246,0.170773582689073
24.22,0.00337904881815775,0.20121578211595
24.23,0.00210429706627897,0.238431414591509
24.24,0.00122987797009636,0.264729540432606
24.25,0.000737094485484736,0.0901098940014084
24.26,0.000609764935516593,0.0928322401219692
24.27,0.000868111393252233,0.0963980409394945
24.28,0.00159493823140101,0.208495413745991
24.29,0.00295096872483468,0.165250967521514
24.3,0.00517953239285923,0.194490524953062
24.31,0.00860292894362116,0.14230989233263
24.32,0.0136132889779989,0.097013245386371
24.33,0.0206599071832117,0.00750789930198115
24.34,0.0302336553957599,-0.00595481650570556
24.35,0.0428480907020776,0.300753827217885
24.36,0.0590168148202782,0.153147616920488
24.37,0.0792274916125789,0.214487068678467
24.38,0.103914136450275,0.246846073358111
24.39,0.133430080079766,0.333262144131167
24.4,0.168023803056961,0.299565516447829
24.41,0.207818582203598,0.287514820968907
24.42,0.252795139385483,0.386519365704889
24.43,0.302775170659823,0.401547004700051
24.44,0.357403647034698,0.374778629504015
24.45,0.41612949709733,0.557143112240608
24.46,0.478187309844269,0.552331470884424
24.47,0.542585915606699,0.597441235255058
24.48,0.608111664561199,0.588715877902941
24.49,0.673353726575986,0.816083415660658
24.5,0.73675537575067,0.753062079826946
24.51,0.79668965290066,0.832848465090026
24.52,0.851551601530368,0.890008523892481
24.53,0.899854442195205,0.932576097313097
24.54,0.94031528096557,1.01862820343994
24.55,0.971917992899687,1.07450506662738
24.56,0.993946275129903,1.06387643932937
24.57,1.00598690149077,0.91185431908479
24.58,1.00790974274011,0.835280788139104
24.59,0.999835157287439,0.987307210190741
24.6,0.982099814812476,0.980822238396152
24.61,0.955229047919327,0.953075847365551
24.62,0.919918738322341,0.814819463048452
24.63,0.87702446295984,0.825538481843232
24.64,0.827551982691918,0.681429614840836
24.65,0.772642236693841,0.979712308307517
24.66,0.713545818262189,0.749771172709954
24.67,0.651585482134098,0.640136490941022
24.68,0.588109079412383,0.422489971155447
24.69,0.524438042492672,0.4852389001848
24.7,0.461817377918069,0.506150276213652
24.71,0.401372140474005,0.438885001398826
24.72,0.344073323591944,0.352221751070322
24.73,0.290714048182952,0.371908359718787
24.74,0.241895677414381,0.061975798568866
24.75,0.198023267429399,0.071374183752456
24.76,0.159310198300825,0.115912977553471
24.77,0.125792164793434,0.0924698236929772
24.78,0.0973502622089509,0.00609487548979616
24.79,0.0737414699995077,0.117523422322471
24.8,0.0546328492624994,-0.164195506188595
24.81,0.0396341555497042,-0.100295774370602
24.82,0.0283233247328445,0.0944985871209733
24.83,0.0202609863102447,0.0261695320332458
24.84,0.014993578355359,-0.175231073948806
24.85,0.0120487451359237,0.00580719684751593
24.86,0.0109299724954731,-0.0352506801752104
24.87,0.0111184410596287,-0.174068335283237
24.88,0.0120881456935512,-0.0411311752960314
24.89,0.0133358105279899,-0.000466739331050752
24.9,0.0144214276316451,-0.153669028584966
24.91,0.0150103466335372,-0.0351219474114393
24.92,0.0149055855788987,-0.178865126939068
24.93,0.0140604219228806,-0.0416613185101166
24.94,0.0125661056705887,-0.167346231916929
24.95,0.0106162575811543,-0.123862140881648
24.96,0.00845601045345981,-0.182431388287081
24.97,0.00632811583094676,-0.0485163222396565
24.98,0.00442876968598085,-0.120873076269607
24.99,0.00288275187860179,-0.0740460993280169
25,0.00174179428373761,-0.0687276535771685
25.01,0.00100382282006833,-0.122237013563407
25.02,0.000645834753601106,-0.132529901013825
25.03,0.000661001135381139,-0.096191106440302
25.04,0.00109139412588892,-0.0835943420385835
25.05,0.00205075571064326,-0.134021184308099
25.06,0.00373553208251461,-0.100387916786331
25.07,0.00642554585679147,-0.0700077916293993
25.08,0.0104772362730544,-0.0784678372049179
25.09,0.0163122443534889,-0.0250687230961954
25.1,0.024402868653117,-0.275838004352397
25.11,0.0352545401549233,-0.0888577621629496
25.12,0.049384802903968,-0.0926712614190252
25.13,0.0672986658373227,-0.151156428656286
25.14,0.0894613098571282,-0.13058430354738
25.15,0.116270262006472,-0.00424261212261205
25.16,0.148029528878238,-0.0454701007852718
25.17,0.184927445263891,-0.0035390184895824
25.18,0.22701838743292,0.0974023864759455
25.19,0.274206810319476,0.192955590763213
25.2,0.326231271577871,0.316387049679775
25.21,0.382646894052955,0.266598065096002
25.22,0.442807109318122,0.422914237275324
25.23,0.505848749562233,0.425145546418319
25.24,0.570687291244043,0.412590724816575
25.25,0.636029931375443,0.469267555143564
25.26,0.700412356718692,0.665523051354184
25.27,0.762260652882079,0.489625741494698
25.28,0.81997390960966,0.631327477577511
25.29,0.872017504307907,0.691440993313713
25.3,0.917013642087689,0.531718271531249
25.31,0.953815735701082,0.725491909028712
25.32,0.981556770779902,0.807050599623881
25.33,0.999667891678227,0.569106910320181
25.34,1.00787019566458,0.83108109061451
25.35,1.00614808152718,0.775156612990166
25.36,0.994714924454089,0.820086792396838
25.37,0.973980834405696,0.819493816435506
25.38,0.944528453352731,0.84472592480242
25.39,0.90709768457623,0.556779664440183
25.4,0.862575740663073,0.648695939715412
25.41,0.811986397672539,0.542442830811096
25.42,0.756472461305742,0.538324253709782
25.43,0.697267819465064,0.464774241406411
25.44,0.635658962965639,0.317861432536729
25.45,0.572939133973477,0.203147248197437
25.46,0.510360219618941,0.453261272809185
25.47,0.449087706125945,0.114976818007293
25.48,0.390162734813323,0.182615234946905
25.49,0.334473350151185,0.0148681348286724
25.5,0.282735298836255,0.171155563142951
25.51,0.235481824658567,-0.13935950239152
25.52,0.193061874759308,-0.112696773120609
25.53,0.155646560430976,-0.177717818540252
25.54,0.123243940802808,-0.109697757417591
25.55,0.09572169874244,-0.181586207040418
25.56,0.0728359684987873,0.0245647168247094
25.57,0.0542628910786295,-0.186151705263926
25.58,0.0396282094094927,-0.0948417366303847
25.59,0.0285301648060134,-0.147705894971625
25.6,0.0205525222837583,-0.167343266831607
25.61,0.0152674950155559,-0.187015116090971
25.62,0.0122317826219465,-0.21017359562176
25.63,0.0109816572063437,-0.291104499802058
25.64,0.0110339059309707,-0.26209185174979
25.65,0.0118979157124323,-0.196881946441778
25.66,0.0131005466802234,-0.431833217232765
25.67,0.0142207703879875,-0.381603463664294
25.68,0.0149268897795912,-0.266577173749264
25.69,0.0150069807906868,-0.382566593921839
25.7,0.0143838682098304,-0.225206022804934
25.71,0.0131094082594007,-0.198291548333832
25.72,0.0113381004157001,-0.167181423705511
25.73,0.00928548722729499,-0.151149744538042
25.74,0.00718075255140266,-0.197184541390365
25.75,0.00522421791363338,-0.200948866703102
25.76,0.00355875870166531,-0.22720258824142
25.77,0.00226015469540883,-0.245003858162703
25.78,0.00134637942752508,-0.313294076344171
25.79,0.000801358105290051,-0.0709317653104762
25.8,0.000606013715146863,-0.312642419533178
25.81,0.0007690183732066,-0.113150096871524
25.82,0.00135131757843657,-0.173043599452259
25.83,0.00248132370918949,-0.0839636507334687
25.84,0.00436056410906074,-0.186089937197414
25.85,0.00726158265522495,-0.274971284596473
25.86,0.0115205883961578,-0.261520930694597
25.87,0.0175268595867204,-0.33915881940381
25.88,0.0257098227875281,-0.13862676210986
25.89,0.036523747539751,-0.206607462205423
25.9,0.0504296529036789,-0.200448595481825
25.91,0.067874438672372,-0.171623506848652
25.92,0.0892681379303186,-0.20639398309984
25.93,0.114960996383666,-0.163169858024753
25.94,0.145222304181351,-0.0361404712858284
25.95,0.180222314498061,0.0424030845741062
25.96,0.220017375119779,-0.0171577103002019
25.97,0.264537125497449,0.0432286318949529
25.98,0.313571947412951,0.0921624275150747
25.99,0.366759296667157,0.142856592631738
26,0.4235691477296,0.166255489271669
26.01,0.483291095025063,0.292175470784711
26.02,0.54502781943432,0.365731753948921
26.03,0.60770069494076,0.389505421409254
26.04,0.670072593893394,0.480870613071125
26.05,0.730790326603365,0.453171951800394
26.06,0.788445164137554,0.573059845451501
26.07,0.841645616876205,0.661900686367564
26.08,0.889093349334038,0.652457265164637
26.09,0.929651855710876,0.693104395677627
26.1,0.962398769584996,0.70005638525276
26.11,0.986656148626384,0.808911901110166
26.12,1.00199779801511,0.80034231113985
26.13,1.00823733915016,1.00156742465591
26.14,1.00540401208514,0.775854003202493
26.15,0.993714295974248,0.785542661401351
26.16,0.973546215800246,0.677382770622336
26.17,0.945420255500626,0.802862888725169
26.18,0.909987178797376,0.673638313245153
26.19,0.868019943746206,0.668758436097847
26.2,0.820405189074463,0.688013454279096
26.21,0.76812983621593,0.684103539412878
26.22,0.712259951759079,0.488358656748012
26.23,0.653911447266475,0.423292886158151
26.24,0.594214573786961,0.410815379800133
26.25,0.534275752462517,0.433071173599102
26.26,0.475140702286103,0.288650208342928
26.27,0.417762167615291,0.239479314831983
26.28,0.362974256943698,0.234459454930694
26.29,0.311474066900736,0.181457868492256
26.3,0.263810360168455,0.163819057862725
26.31,0.220378784228275,-0.120459959260201
26.32,0.181423318090973,-0.0954372075464059
26.33,0.14704394152795,-0.127294110130981
26.34,0.117210523719512,-0.0300977846238072
26.35,0.0917823844401411,-0.191776809351779
26.36,0.0705319522009203,-0.120288293387045
26.37,0.0531697927695792,-0.0829839731679557
26.38,0.0393675352106748,0.0271756826331588
26.39,0.0287753520919153,-0.155388933462141
26.4,0.0210318540601091,-0.142915249204526
26.41,0.0157663374690404,-0.125007070108444
26.42,0.0125957039504333,-0.191982267970663
26.43,0.011120277688478,-0.3990900093724
26.44,0.010923467740577,-0.0196856204836426
26.45,0.0115793746677673,-0.164655755504024
26.46,0.0126701328513264,-0.190640748519984
26.47,0.0138116195711708,-0.106292694763606
26.48,0.0146830848147592,-0.175004926221263
26.49,0.0150542353393621,-0.0487489014645332
26.5,0.014803038115235,-0.156041626760964
26.51,0.0139191742408112,-0.0492109113311258
26.52,0.0124912705688239,-0.134832384425523
26.53,0.010679886944155,-0.193254716199535
26.54,0.00868166188472138,-0.0550065916049435
26.55,0.00669206554722495,0.082377617218744
26.56,0.00487433797363234,-0.191122159741543
26.57,0.00334043257834434,-0.145447613374184
26.58,0.00214670750801264,-0.201843825964455
26.59,0.00130362097597724,0.0213338547041773
26.6,0.000795749895642471,-0.093219845150568
26.61,0.000606780147279195,-0.286607542347961
26.62,0.000743988612141221,-0.272873985295602
26.63,0.00125794718158383,-0.0182956612500574
26.64,0.00225515619780595,-0.0652914579582159
26.65,0.00390334466544866,-0.243545655199531
26.66,0.00643064762396607,-0.174913415501179
26.67,0.0101204704975431,-0.0397673205635813
26.68,0.0153036189406711,-0.0595978540704436
26.69,0.0223485461567104,-0.202137872831002
26.7,0.0316498097221119,0.0199608962050708
26.71,0.0436144280325605,-0.0590145127669478
26.72,0.0586459521787406,0.092935039010747
26.73,0.0771266189932403,0.0512521416586968
26.74,0.0993986128925434,0.13547473847068
26.75,0.125745866041125,-0.0865557222263409
26.76,0.156377709279454,0.164299077066055
26.77,0.191415029588161,0.227098844336803
26.78,0.230878638144785,0.22778506875059
26.79,0.274678730337497,0.143808164052689
26.8,0.322604061318909,0.280570325142552
26.81,0.374310028654113,0.186153961655052
26.82,0.429306199964026,0.352199364247361
26.83,0.48694556850595,0.399152749713347
26.84,0.546419353349491,0.549533248360352
26.85,0.606761841757591,0.758818856569954
26.86,0.666869156326144,0.67618716193063
26.87,0.725533853047717,0.677939769859531
26.88,0.781494294239707,0.844676055193437
26.89,0.833494525735477,0.887575823281236
26.9,0.880347804313778,0.896442504357838
26.91,0.920995733017738,0.868068743544207
26.92,0.954555569644329,1.00431162839397
26.93,0.980350577794684,1.04216641082436
26.94,0.997921707092453,1.03128590983547
26.95,1.00702251977274,1.17433539263811
26.96,1.00760217521236,1.20900883251769
26.97,0.999782723739713,0.94100948545314
26.98,0.983836665743663,1.03975545658315
26.99,0.96016892721112,0.888820138117449
27,0.929304730851018,0.916404309495383
27.01,0.891882148760016,0.891220838415531
27.02,0.848646191072388,0.87489998651979
27.03,0.800440602982933,0.982026230509601
27.04,0.74819417692932,0.726122282899207
27.05,0.692899999470095,0.78179026123064
27.06,0.635588043935711,0.749682071952735
27.07,0.577293245662584,0.651155760968143
27.08,0.519022179317529,0.621684116687528
27.09,0.461721524854899,0.470912898531135
27.1,0.406250812337991,0.434148820602136
27.11,0.353360858437183,0.366823596029695
27.12,0.303678292570364,0.199504201292423
27.13,0.257695947984563,0.382301453821433
27.14,0.215768761262729,0.260349768208048
27.15,0.17811503381069,0.245105203154423
27.16,0.144823150105678,0.282399398786029
27.17,0.115863799064409,0.207454917487097
27.18,0.0911072317343222,0.173019828929063
27.19,0.0703441777426186,0.122051517254226
27.2,0.0533080399981437,0.279809329837565
27.21,0.0396953287330215,0.151262767573262
27.22,0.0291813771478384,0.142309761192543
27.23,0.0214293808002676,0.2065156385396
27.24,0.0160925773463733,0.156255244665071
27.25,0.0128114714865987,0.0553003215210705
27.26,0.0112097616866521,0.0946717503815524
27.27,0.010893411343923,0.0677518316194006
27.28,0.0114567437303254,-0.0011675219339952
27.29,0.0124975470804665,0.124198980789504
27.3,0.0136404093768341,0.189196552635137
27.31,0.0145646402340606,0.104107975331195
27.32,0.0150310523622394,0.184253739492766
27.33,0.0149012607001833,0.212181309911646
27.34,0.0141442986135346,0.144818426967071
27.35,0.0128280172701634,0.117421305685204
27.36,0.0110962339392226,0.100314881319957
27.37,0.00913597317828124,0.13497199482468
27.38,0.00714147095035557,0.283232943950843
27.39,0.00528225828853636,0.166264585437972
27.4,0.00368146887741797,0.123112047307615
27.41,0.00240790384763739,0.125459314391532
27.42,0.00148210652788997,0.169066843228014
27.43,0.00089366219554171,0.175758503715182
27.44,0.000624917705669647,0.275220619752487
27.45,0.000675726852081402,0.136307890019982
27.46,0.00108462546622868,0.251264992904189
27.47,0.00194357993042727,0.125981166801308
27.48,0.00340546802341853,0.19795927106103
27.49,0.00568509449171729,0.157428878651127
27.5,0.00905539837366906,0.271314981255461
27.51,0.0138405011599761,0.309767806222126
27.52,0.0204066251952881,0.329697229888156
27.53,0.0291511205174102,0.272659147861815
27.54,0.0404893105652189,0.191054857845375
27.55,0.0548388553240767,0.238105451805063
27.56,0.0726018121024962,0.292088410500432
27.57,0.0941452778310646,0.124672967985324
27.58,0.119782033143135,0.433030363020181
27.59,0.149752651986718,0.265912230739607
27.6,0.184209987374423,0.351162588714743
27.61,0.223205979772213,0.535423926619993
27.62,0.266679779885065,0.507091144565084
27.63,0.314445725697032,0.561766840761901
27.64,0.366180122011436,0.517603322602231
27.65,0.42140708527522,0.50649535495638
27.66,0.479485602774075,0.631177174473824
27.67,0.539601773619569,0.796512656392489
27.68,0.600771206881908,0.876598134006629
27.69,0.661856169542178,0.885435417034706
27.7,0.721600119662482,0.911796874082298
27.71,0.778679055153613,1.03238284725931
27.72,0.831765438120313,1.00680704496376
27.73,0.879597338789794,1.14683363546471
27.74,0.921043823590479,1.06070553189471
27.75,0.955158044334373,1.33324555684925
27.76,0.981211940782458,0.995345998218112
27.77,0.99871031979056,1.34399340621804
27.78,1.00738627452095,1.18808014956774
27.79,1.00718331010329,1.34171061960125
27.8,0.998231254120284,1.11693417875671
27.81,0.980822683553143,1.1910260630659
27.82,0.955394453408447,1.21001307655635
27.83,0.922515750000688,1.08055461035295
27.84,0.882880954041729,1.07989759699859
27.85,0.837303440433184,1.11766103080284
27.86,0.786705834612278,1.07224643904788
27.87,0.732103221221244,0.876406869555288
27.88,0.674577884243023,0.837387567576611
27.89,0.615246567097982,0.875927780236542
27.9,0.555223180172059,0.913445611675905
27.91,0.495580813810214,0.800854022759647
27.92,0.437316715763843,0.561896938507789
27.93,0.381322852265151,0.570433844143136
27.94,0.328363330885696,0.428557661823863
27.95,0.279058869536407,0.589549233175183
27.96,0.233877981265392,0.412372569672204
27.97,0.193134604826474,0.440836707044802
27.98,0.156992237981178,0.454640122736529
27.99,0.125474777659948,0.364044798646608
28,0.0984838825553946,0.279985525954742
28.01,0.075821677083424,0.334699213997492
28.02,0.0572162935455152,0.200530366525662
28.03,0.0423466516700405,0.482231231168672
28.04,0.0308625992402845,0.0811827213474125
28.05,0.0223974624091577,0.448689941553754
28.06,0.0165721320994817,0.312245855459099
28.07,0.0129925175025848,0.216170687741239
28.08,0.0112446610778266,0.282979352343967
28.09,0.0108931115712645,0.256596190367251
28.1,0.011487663854449,0.441024034023467
28.11,0.0125812289082825,0.438283705775993
28.12,0.0137579729366961,0.323846901973307
28.13,0.0146670437615363,0.240302931211996
28.14,0.0150544347408897,0.275139725524017
28.15,0.0147848185335393,0.19978506095643
28.16,0.0138469037270888,0.184231536922175
28.17,0.0123396440110383,0.234409439164986
28.18,0.0104414040118117,0.378722280240421
28.19,0.00836855332065687,0.215261195375991
28.2,0.00633262226280301,0.272866574638391
28.21,0.00450533939634448,0.351637523273903
28.22,0.00299858408348227,0.279835659298672
28.23,0.00186228608581341,0.286159737691479
28.24,0.00109883270102768,0.189982428240634
28.25,0.000688909494414849,0.250680630325027
28.26,0.000621845416824646,0.160952257949898
28.27,0.00092375366642759,0.178731718303295
28.28,0.00167866514225452,0.145985534308331
28.29,0.00304056335954108,0.203687734617846
28.3,0.0052367387931813,0.266943977048926
28.31,0.00856441916580588,0.23421838712989
28.32,0.0133829238315091,0.167797212039342
28.33,0.0201028893067026,0.173408958764629
28.34,0.029173031658617,0.15173550029712
